0,1,2,3,4,5,6,7,8,9,10,11,12,13,14,15,16,17,18,19,20,21,22,23,24,25,26,27,28,29,30,31,32,33,34,35,36,37,38,39,40,41,42,43,44,45,46,47,48,49,50,51,52,53,54,55,56,57,58,59,60,61,62,63,64,65,66,67,68,69,70,71,72,73,74,75,76,77,78,79,80,81,82,83,84,85,86,87,88,89,90,91,92,93,94,95,96,97,98,99,100,101,102,103,104,105,106,107,108,109,110,111,112,113,114,115,116,117,118,119,120,121,122,123,124,125,126,127,128,129,130,131,132,133,134,135,136,137,138,139,140,141,142,143,144,145,146,147,148,149,150,151,152,153,154,155,156,157,158,159,160,161,162,163,164,165,166,167,168,169,170,171,172,173,174,175,176,177,178,179,180,181,182,183,184,185,186,187,188,189,190,191,192,193,194,195,196,197,198,199,200,201,202,203,204,205,206,207,208,209,210,211,212,213,214,215,216,217,218,219,220,221,222,223,224,225,226,227,228,229,230,231,232,233,234,235,236,237,238,239,240,241,242,243,244,245,246,247,248,249,250,251,252,253,254,255,256,257,258,259,260,261,262,263,264,265,266,267,268,269,270,271,272,273,274,275,276,277,278,279,280,281,282,283,284,285,286,287,288,289,290,291,292,293,294,295,296,297,298,299,300,301,302,303,304,305,306,307,308,309,310,311,312,313,314,315,316,317,318,319,320,321,322,323,324,325,326,327,328,329,330,331,332,333,334,335,336,337,338,339,340,341,342,343,344,345,346,347,348,349,350,351,352,353,354,355,356,357,358,359,360,361,362,363,364,365,366,367,368,369,370,371,372,373,374,375,376,377,378,379,380,381,382,383,384,385,386,387,388,389,390,391,392,393,394,395,396,397,398,399,400,401,402,403,404,405,406,407,408,409,410,411,412,413,414,415,416,417,418,419,420,421,422,423,424,425,426,427,428,429,430,431,432,433,434,435,436,437,438,439,440,441,442,443,444,445,446,447,448,449,450,451,452,453,454,455,456,457,458,459,460,461,462,463,464,465,466,467,468,469,470,471,472,473,474,475,476,477,478,479,480,481,482,483,484,485,486,487,488,489,490,491,492,493,494,495,496,497,498,499,500,501,502,503,504,505,506,507,508,509,510,511,512,513,514,515,516,517,518,519,520,521,522,523,524,525,526,527,528,529,530,531,532,533,534,535,536,537,538,539,540,541,542,543,544,545,546,547,548,549,550,551,552,553,554,555,556,557,558,559,560,561,562,563,564,565,566,567,568,569,570,571,572,573,574,575,576,577,578,579,580,581,582,583,584,585,586,587,588,589,590,591,592,593,594,595,596,597,598,599,600,601,602,603,604,605,606,607,608,609,610,611,612,613,614,615,616,617,618,619,620,621,622,623,624,625,626,627,628,629,630,631,632,633,634,635,636,637,638,639,640,641,642,643,644,645,646,647,648,649,650,651,652,653,654,655,656,657,658,659,660,661,662,663,664,665,666,667,668,669,670,671,672,673,674,675,676,677,678,679,680,681,682,683,684,685,686,687,688,689,690,691,692,693,694,695,696,697,698,699,700,701,702,703,704,705,706,707,708,709,710,711,712,713,714,715,716,717,718,719,720,721,722,723,724,725,726,727,728,729,730,731,732,733,734,735,736,737,738,739,740,741,742,743,744,745,746,747,748,749,750,751,752,753,754,755,756,757,758,759,760,761,762,763,764,765,766,767,768,769,770,771,772,773,774,775,776,777,778,779,780,781,782,783,784,785,786,787,788,789,790,791,792,793,794,795,796,797,798,799,800,801,802,803,804,805,806,807,808,809,810,811,812,813,814,815,816,817,818,819,820,821,822,823,824,825,826,827,828,829,830,831,832,833,834,835,836,837,838,839,840,841,842,843,844,845,846,847,848,849,850,851,852,853,854,855,856,857,858,859,860,861,862,863,864,865,866,867,868,869,870,871,872,873,874,875,876,877,878,879,880,881,882,883,884,885,886,887,888,889,890,891,892,893,894,895,896,897,898,899,900,901,902,903,904,905,906,907,908,909,910,911,912,913,914,915,916,917,918,919,920,921,922,923,924,925,926,927,928,929,930,931,932,933,934,935,936,937,938,939,940,941,942,943,944,945,946,947,948,949,950,951,952,953,954,955,956,957,958,959,960,961,962,963,964,965,966,967,968,969,970,971,972,973,974,975,976,977,978,979,980,981,982,983,984,985,986,987,988,989,990,991,992,993,994,995,996,997,998,999,1000,1001,1002,1003,1004,1005,1006,1007,1008,1009,1010,1011,1012,1013,1014,1015,1016,1017,1018,1019,1020,1021,1022,1023,1024,1025,1026,1027,1028,1029,1030,1031,1032,1033,1034,1035,1036,1037,1038,1039,1040,1041,1042,1043,1044,1045,1046,1047,1048,1049,1050,1051,1052,1053,1054,1055,1056,1057,1058,1059,1060,1061,1062,1063,1064,1065,1066,1067,1068,1069,1070,1071,1072,1073,1074,1075,1076,1077,1078,1079,1080,1081,1082,1083,1084,1085,1086,1087,1088,1089,1090,1091,1092,1093,1094,1095,1096,1097,1098,1099,1100,1101,1102,1103,1104,1105,1106,1107,1108,1109,1110,1111,1112,1113,1114,1115,1116,1117,1118,1119,1120,1121,1122,1123,1124,1125,1126,1127,1128,1129,1130,1131,1132,1133,1134,1135,1136,1137,1138,1139,1140,1141,1142,1143,1144,1145,1146,1147,1148,1149,1150,1151,1152,1153,1154,1155,1156,1157,1158,1159,1160,1161,1162,1163,1164,1165,1166,1167,1168,1169,1170,1171,1172,1173,1174,1175,1176,1177,1178,1179,1180,1181,1182,1183,1184,1185,1186,1187,1188,1189,1190,1191,1192,1193,1194,1195,1196,1197,1198,1199,1200,1201,1202,1203,1204,1205,1206,1207,1208,1209,1210,1211,1212,1213,1214,1215,1216,1217,1218,1219,1220,1221,1222,1223,1224,1225,1226,1227,1228,1229,1230,1231,1232,1233,1234,1235,1236,1237,1238,1239,1240,1241,1242,1243,1244,1245,1246,1247,1248,1249,1250,1251,1252,1253,1254,1255,1256,1257,1258,1259,1260,1261,1262,1263,1264,1265,1266,1267,1268,1269,1270,1271,1272,1273,1274,1275,1276,1277,1278,1279,1280,1281,1282,1283,1284,1285,1286,1287,1288,1289,1290,1291,1292,1293,1294,1295,1296,1297,1298,1299,1300,1301,1302,1303,1304,1305,1306,1307,1308,1309,1310,1311,1312,1313,1314,1315,1316,1317,1318,1319,1320,1321,1322,1323,1324,1325,1326,1327,1328,1329,1330,1331,1332,1333,1334,1335,1336,1337,1338,1339,1340,1341,1342,1343,1344,1345,1346,1347,1348,1349,1350,1351,1352,1353,1354,1355,1356,1357,1358,1359,1360,1361,1362,1363,1364,1365,1366,1367,1368,1369,1370,1371,1372,1373,1374,1375,1376,1377,1378,1379,1380,1381,1382,1383,1384,1385,1386,1387,1388,1389,1390,1391,1392,1393,1394,1395,1396,1397,1398,1399,1400,1401,1402,1403,1404,1405,1406,1407,1408,1409,1410,1411,1412,1413,1414,1415,1416,1417,1418,1419,1420,1421,1422,1423,1424,1425,1426,1427,1428,1429,1430,1431,1432,1433,1434,1435,1436,1437,1438,1439,1440,1441,1442,1443,1444,1445,1446,1447,1448,1449,1450,1451,1452,1453,1454,1455,1456,1457,1458,1459,1460,1461,1462,1463,1464,1465,1466,1467,1468,1469,1470,1471,1472,1473,1474,1475,1476,1477,1478,1479,1480,1481,1482,1483,1484,1485,1486,1487,1488,1489,1490,1491,1492,1493,1494,1495,1496,1497,1498,1499,1500,1501,1502,1503,1504,1505,1506,1507,1508,1509,1510,1511,1512,1513,1514,1515,1516,1517,1518,1519,1520,1521,1522,1523,1524,1525,1526,1527,1528,1529,1530,1531,1532,1533,1534,1535,1536,1537,1538,1539,1540,1541,1542,1543,1544,1545,1546,1547,1548,1549,1550,1551,1552,1553,1554,1555,1556,1557,1558,1559,1560,1561,1562,1563,1564,1565,1566,1567,1568,1569,1570,1571,1572,1573,1574,1575,1576,1577,1578,1579,1580,1581,1582,1583,1584,1585,1586,1587,1588,1589,1590,1591,1592,1593,1594,1595,1596,1597,1598,1599,1600,1601,1602,1603,1604,1605,1606,1607,1608,1609,1610,1611,1612,1613,1614,1615,1616,1617,1618,1619,1620,1621,1622,1623,1624,1625,1626,1627,1628,1629,1630,1631,1632,1633,1634,1635,1636,1637,1638,1639,1640,1641,1642,1643,1644,1645,1646,1647,1648,1649,1650,1651,1652,1653,1654,1655,1656,1657,1658,1659,1660,1661,1662,1663,1664,1665,1666,1667,1668,1669,1670,1671,1672,1673,1674,1675,1676,1677,1678,1679,1680,1681,1682,1683,1684,1685,1686,1687,1688,1689,1690,1691,1692,1693,1694,1695,1696,1697,1698,1699,1700,1701,1702,1703,1704,1705,1706,1707,1708,1709,1710,1711,1712,1713,1714,1715,1716,1717,1718,1719,1720,1721,1722,1723,1724,1725,1726,1727,1728,1729,1730,1731,1732,1733,1734,1735,1736,1737,1738,1739,1740,1741,1742,1743,1744,1745,1746,1747,1748,1749,1750,1751,1752,1753,1754,1755,1756,1757,1758,1759,1760,1761,1762,1763,1764,1765,1766,1767,1768,1769,1770,1771,1772,1773,1774,1775,1776,1777,1778,1779,1780,1781,1782,1783,1784,1785,1786,1787,1788,1789,1790,1791,1792,1793,1794,1795,1796,1797,1798,1799,1800,1801,1802,1803,1804,1805,1806,1807,1808,1809,1810,1811,1812,1813,1814,1815,1816,1817,1818,1819,1820,1821,1822,1823,1824,1825,1826,1827,1828,1829,1830,1831,1832,1833,1834,1835,1836,1837,1838,1839,1840,1841,1842,1843,1844,1845,1846,1847,1848,1849,1850,1851,1852,1853,1854,1855,1856,1857,1858,1859,1860,1861,1862,1863,1864,1865,1866,1867,1868,1869,1870,1871,1872,1873,1874,1875,1876,1877,1878,1879,1880,1881,1882,1883,1884,1885,1886,1887,1888,1889,1890,1891,1892,1893,1894,1895,1896,1897,1898,1899,1900,1901,1902,1903,1904,1905,1906,1907,1908,1909,1910,1911,1912,1913,1914,1915,1916,1917,1918,1919,1920,1921,1922,1923,1924,1925,1926,1927,1928,1929,1930,1931,1932,1933,1934,1935,1936,1937,1938,1939,1940,1941,1942,1943,1944,1945,1946,1947,1948,1949,1950,1951,1952,1953,1954,1955,1956,1957,1958,1959,1960,1961,1962,1963,1964,1965,1966,1967,1968,1969,1970,1971,1972,1973,1974,1975,1976,1977,1978,1979,1980,1981,1982,1983,1984,1985,1986,1987,1988,1989,1990,1991,1992,1993,1994,1995,1996,1997,1998,1999,2000,2001,2002,2003,2004,2005,2006,2007,2008,2009,2010,2011,2012,2013,2014,2015,2016,2017,2018,2019,2020,2021,2022,2023,2024,2025,2026,2027,2028,2029,2030,2031,2032,2033,2034,2035,2036,2037,2038,2039,2040,2041,2042,2043,2044,2045,2046,2047,2048,2049,2050,2051,2052,2053,2054,2055,2056,2057,2058,2059,2060,2061,2062,2063,2064,2065,2066,2067,2068,2069,2070,2071,2072,2073,2074,2075,2076,2077,2078,2079,2080,2081,2082,2083,2084,2085,2086,2087,2088,2089,2090,2091,2092,2093,2094,2095,2096,2097,2098,2099,2100,2101,2102,2103,2104,2105,2106,2107,2108,2109,2110,2111,2112,2113,2114,2115,2116,2117,2118,2119,2120,2121,2122,2123,2124,2125,2126,2127,2128,2129,2130,2131,2132,2133,2134,2135,2136,2137,2138,2139,2140,2141,2142,2143,2144,2145,2146,2147,2148,2149,2150,2151,2152,2153,2154,2155,2156,2157,2158,2159,2160,2161,2162,2163,2164,2165,2166,2167,2168,2169,2170,2171,2172,2173,2174,2175,2176,2177,2178,2179,2180,2181,2182,2183,2184,2185,2186,2187,2188,2189,2190,2191,2192,2193,2194,2195,2196,2197,2198,2199,2200,2201,2202,2203,2204,2205,2206,2207,2208,2209,2210,2211,2212,2213,2214,2215,2216,2217,2218,2219,2220,2221,2222,2223,2224,2225,2226,2227,2228,2229,2230,2231,2232,2233,2234,2235,2236,2237,2238,2239,2240,2241,2242,2243,2244,2245,2246,2247,2248,2249,2250,2251,2252,2253,2254,2255,2256,2257,2258,2259,2260,2261,2262,2263,2264,2265,2266,2267,2268,2269,2270,2271,2272,2273,2274,2275,2276,2277,2278,2279,2280,2281,2282,2283,2284,2285,2286,2287,2288,2289,2290,2291,2292,2293,2294,2295,2296,2297,2298,2299,2300,2301,2302,2303,2304,2305,2306,2307,2308,2309,2310,2311,2312,2313,2314,2315,2316,2317,2318,2319,2320,2321,2322,2323,2324,2325,2326,2327,2328,2329,2330,2331,2332,2333,2334,2335,2336,2337,2338,2339,2340,2341,2342,2343,2344,2345,2346,2347,2348,2349,2350,2351,2352,2353,2354,2355,2356,2357,2358,2359,2360,2361,2362,2363,2364,2365,2366,2367,2368,2369,2370,2371,2372,2373,2374,2375,2376,2377,2378,2379,2380,2381,2382,2383,2384,2385,2386,2387,2388,2389,2390,2391,2392,2393,2394,2395,2396,2397,2398,2399,2400,2401,2402,2403,2404,2405,2406,2407,2408,2409,2410,2411,2412,2413,2414,2415,2416,2417,2418,2419,2420,2421,2422,2423,2424,2425,2426,2427,2428,2429,2430,2431,2432,2433,2434,2435,2436,2437,2438,2439,2440,2441,2442,2443,2444,2445,2446,2447,2448,2449,2450,2451,2452,2453,2454,2455,2456,2457,2458,2459,2460,2461,2462,2463,2464,2465,2466,2467,2468,2469,2470,2471,2472,2473,2474,2475,2476,2477,2478,2479,2480,2481,2482,2483,2484,2485,2486,2487,2488,2489,2490,2491,2492,2493,2494,2495,2496,2497,2498,2499
12.444895704387168,101.24423884863864,407.48991319055773,1108.655734198152,2343.0842751799323,4163.204223358043,6529.006891514942,9324.995463475421,12386.187207672134,15525.105978324616,18556.808431493555,21319.289375345514,23687.163518949063,25579.240361856762,26961.570826187497,27845.735432902,28281.352911654976,28343.918430623948,28121.532232680125,27704.006931736134,27175.367355806055,26609.008939115796,26064.695347188972,25586.761237795,25203.73681158945,24929.88758734567,24767.718385457993,24710.025952476077,24741.745908631012,24842.82042007055,24991.531132124364,25166.35002735909,25346.62595654372,25514.022008285858,25654.64461814519,25760.529499104246,25829.70663164556,25864.706095181406,25870.567369388416,25853.861589368433,25822.397140936926,25783.899307742715,25743.708149384707,25704.062194382772,25666.3796717152,25633.859717860818,25610.922757826746,25600.376824390143,25601.79856699705,25611.800326835364,25624.870952870697,25634.700834535062,25636.0182604976,25625.876927755773,25603.688347369432,25570.81527183205,25530.60901626572,25487.93195771426,25447.26378678158,25411.123796485364,25380.46910675615,25355.790482401848,25337.26904581487,25324.25631378591,25315.255049213767,25308.986914671957,25305.737556688488,25307.5925469622,25316.877465829253,25333.777543991804,25355.44873673469,25377.46707074344,25396.03736191243,25409.45264814049,25418.361854843795,25424.674299053848,25430.03232586384,25435.942289322615,25445.795788370073,25465.964294992387,25503.765969604254,25563.85444484651,25645.258407115936,25739.315569654107,25830.160514891148,25899.450770258904,25932.280663579702,25920.34287416935,25861.976191535592,25760.94173078239,25625.73777525127,25469.43392778933,25308.780726462603,25162.35238340497,25048.228410601616,24981.633780807257,24973.40218178928,25029.53726503253,25149.951519042253,25324.92520800233,25531.875226154923,25737.04557003081,25903.384278923273,26000.395511060953,26010.711534902453,25932.049268886447,25775.98033812642,25564.77917893231,25326.711547598243,25090.30191127956,24879.371338665485,24710.234266728163,24590.81421262026,24521.012986958027,24494.11948263645,24499.31574138999,24524.43303862214,24557.5709823668,24587.798516839743,24606.141463816166,24606.656463176012,24586.517785966396,24545.761103272438,24488.471651285887,24424.92130678892,24371.881824165583,24349.63945314288,24376.81545162201,24464.585296094418,24610.93751385808,24796.387451440096,24984.952495753765,25133.138831794262,25203.61665058136,25176.1953997612,25051.647396683693,24848.701325416565,24596.275688439608,24324.19218236208,24056.80128312111,23810.979067236185,23595.800229519606,23412.747479707003,23257.583894520998,23123.145639121532,23001.580419689417,22885.927478194237,22771.67508009076,22658.7093860507,22552.544814020395,22462.75149783492,22398.5281958282,22364.543021440506,22359.822601497173,22379.086239099503,22414.646066069603,22458.263532936573,22503.018415749073,22544.613951981068,22581.60251033306,22614.919850885868,22646.95961725712,22680.183821201324,22715.626740336418,22751.849047124386,22785.63752233982,22814.26946979761,22835.68000239134,22845.82865446806,22837.660742104053,22802.787531375885,22733.48005616665,22624.39737844467,22473.80618917942,22283.907350718975,22061.335007429123,21818.394158124924,21574.03940320015,21352.703811109066,21179.04188877344,21069.816006839275,21028.291953623295,21045.14006227255,21103.859849333763,21186.07792645693,21274.73042368889,21355.85008150339,21419.83108764887,21462.225331008434,21484.428189516068,21494.57286298275,21506.619103074074,21535.84887611866,21593.12129151821,21681.124716937542,21793.27716231346,21914.996674776077,22027.209007143974,22111.82941108942,22157.85584908724,22164.47004008293,22138.62085711956,22090.088509976864,22028.992765963078,21965.432916104794,21907.8338868618,21860.50620996952,21822.960659742355,21790.816540002823,21757.67394542694,21718.312048614025,21671.87537175417,21623.228583574295,21582.914144277573,21565.944342136383,21587.508119881153,21656.25387108326,21770.402410149574,21919.05472588539,22086.06618666649,22254.713535904884,22412.148817420006,22551.86943423748,22673.78195631504,22782.406143665314,22883.48014163971,22980.513435959816,23073.638282179832,23160.832030892372,23240.188440799713,23312.59557723999,23383.700507044792,23462.973758101463,23559.23415875435,23675.48529458046,23806.497018933296,23940.077545642853,24061.13679945469,24156.564502120018,24218.736729621887,24246.89769434929,24246.789172530174,24229.09052145481,24207.148619771004,24194.046874284744,24199.782259225845,24230.527687072754,24290.28165781498,24381.86657333374,24504.54703962803,24650.33182668686,24803.813551068306,24946.947756886482,25065.383446455002,25152.141795277596,25207.23250102997,25235.490408062935,25245.196835398674,25246.702946305275,25249.53221321106,25259.246821165085,25276.422639131546,25298.330783724785,25321.875515699387,25345.80801653862,25371.688912510872,25404.21619784832,25451.154136538506,25522.911227107048,25630.990005373955,25783.06632876396,25975.564809560776,26190.320059776306,26400.134736180305,26579.40525519848,26711.76073372364,26791.570768237114,26822.251286029816,26813.958285450935,26781.244135260582,26741.622279167175,26714.548023462296,26718.221841931343,26764.07759797573,26852.73718905449,26974.505475521088,27113.65224635601,27253.526895284653,27380.16896367073,27484.20089685917,27561.79300200939,27614.63669002056,27648.521709561348,27670.85517656803,27688.308210492134,27706.310939073563,27730.705325245857,27768.116623163223,27822.155977129936,27889.917016625404,27963.745203137398,28034.909386873245,28095.415655851364,28139.898792743683,28167.7223341465,28181.808013916016,28185.316299676895,28180.5628323555,28168.89957690239,28149.360891819,28119.343304872513,28077.8492603302,28026.46897315979,27967.218437433243,27901.340405464172,27830.73209643364,27759.804160118103,27695.82853937149,27647.349556684494,27621.249148130417,27620.720263004303,27645.69673371315,27694.031241178513,27761.477530241013,27840.975669384003,27922.7523021698,27996.11364173889,28052.529469013214,28088.22118663788,28104.852396011353,28108.804478168488,28109.901891946793,28120.929488658905,28158.8549451828,28243.659250974655,28390.6802880764,28600.837410211563,28855.113869667053,29115.750849962234,29336.22887778282,29477.630546331406,29522.231263160706,29477.908284187317,29372.68835377693,29241.304888010025,29110.151668548584,28989.768638134003,28878.01660323143,28768.802537202835,28659.90709042549,28557.42312312126,28476.548882961273,28437.223670482635,28454.084407567978,28526.91115140915,28640.238053798676,28771.501352071762,28899.436403751373,29008.426739931107,29089.614550352097,29139.728581666946,29158.672149658203,29148.115094423294,29112.563614845276,29061.191177368164,29006.87149786949,28961.61448454857,28931.831202030182,28916.66214776039,28909.920679092407,28904.666204214096,28897.908930778503,28892.572672128677,28895.39919900894,28912.71423459053,28948.974496126175,29009.176668405533,29099.119521141052,29220.308463573456,29365.30288052559,29518.915798425674,29663.08957004547,29781.41239976883,29861.92218542099,29897.881072044373,29887.46844291687,29834.563705444336,29750.00552558899,29649.130821228027,29545.48260116577,29448.298352479935,29366.692399263382,29311.10615825653,29286.530628204346,29286.907112836838,29298.4451379776,29307.17624592781,29304.829913139343,29291.078481912613,29271.20353293419,29250.99215555191,29232.977854967117,29216.415896892548,29199.409386873245,29179.847815990448,29154.973118543625,29121.854786872864,29079.364135742188,29030.21184206009,28980.89418697357,28938.99164700508,28910.160625696182,28896.678755283356,28897.841443777084,28912.95140147209,28945.051345586777,29000.286464214325,29082.322106599808,29187.712392807007,29306.70321083069,29428.439106464386,29546.21017575264,29658.263684749603,29763.91090941429,29859.588166713715,29938.52620792389,29993.6858420372,30022.016369342804,30027.39329099655,30019.927247047424,30012.071971416473,30014.384029865265,30033.760424613953,30074.387741088867,30138.94383621216,30228.990025043488,30346.186726093292,30493.859501361847,30675.344960212708,30888.840250968933,31124.199081897736,31366.139922618866,31601.10795545578,31821.08376598358,32022.457872390747,32203.316578388214,32361.04374551773,32491.718592643738,32593.420221328735,32669.95551252365,32729.37502527237,32779.04421567917,32823.58113145828,32866.28676366806,32908.35447263718,32945.24009656906,32967.21465206146,32966.104486465454,32941.776789188385,32903.88381719589,32869.24570941925,32855.20639514923,32871.709283828735,32918.89035463333,32992.249254226685,33088.554235458374,33205.41238260269,33336.35784244537,33469.040232658386,33588.72632932663,33683.14842700958,33746.38927268982,33781.17793512344,33798.5941028595,33815.71093273163,33851.485900878906,33920.388637542725,34026.94422388077,34166.50980091095,34330.957595825195,34512.23414373398,34702.33253288269,34892.90356492996,35073.95611476898,35232.35843229294,35354.997426986694,35436.07990026474,35482.14378118515,35510.49739933014,35541.94289112091,35591.88137674332,35663.587144851685,35746.53384256363,35821.70889234543,35871.14354801178,35885.58430862427,35868.50397491455,35837.05683994293,35816.9838886261,35831.548843860626,35891.70930528641,35993.202760219574,36121.424280166626,36262.08001089096,36410.616413116455,36572.82672071457,36757.94869804382,36971.07887649536,37208.14709568024,37454.91413068771,37691.68205785751,37900.43126153946,38068.26376724243,38187.18481492996,38255.09196329117,38278.67332983017,38274.28023815155,38265.31046581268,38277.854741573334,38334.679559230804,38447.804158210754,38614.2075881958,38818.524243831635,39040.52923631668,39262.481523513794,39473.40503883362,39669.71264886856,39852.8973531723,40026.48383426666,40194.15580654144,40358.853220939636,40522.655081272125,40688.34555721283,40862.15497255325,41054.02168464661,41272.70584011078,41521.050273895264,41798.92663049698,42109.8793091774,42460.849734306335,42854.24386739731,43279.121977329254,43705.59609699249,44086.53466939926,44369.7289390564,44515.385892391205,44509.50675916672,44367.75810337067,44130.02477264404,43849.47834825516,43579.64888334274,43362.61297750473,43224.21964931488,43177.6929101944,43226.977972984314,43363.750405311584,43564.31060171127,43794.494775772095,44019.3379740715,44209.597150325775,44344.99599504471,44416.694573402405,44427.860900878906,44391.53277301788,44326.869945049286,44255.39452600479,44198.22617197037,44174.15817642212,44198.56559562683,44283.28952169418,44436.389602184296,44661.10338497162,44955.41095638275,45312.79802465439,45722.66528749466,46169.503251075745,46632.318172454834,47086.899804115295,47511.5678358078,47893.28581237793,48229.484827041626,48523.48571205139,48775.98283243179,48978.966077804565,49117.731333732605,49179.23690891266,49159.90493774414,49068.500772476196,48923.552077293396,48747.93327140808,48564.98900413513,48397.71787929535,48269.28777694702,48203.02803134918,48219.71045303345,48330.37172317505,48528.83197975159,48792.532276153564,49092.26035785675,49400.850502967834,49694.96025276184,49954.25664520264,50163.17078113556,50314.59582519531,50411.22814273834,50462.14167881012,50477.11156177521,50462.85988903046,50422.99650859833,50360.232911109924,50278.16063117981,50181.66403102875,50076.65562725067,49969.65349960327,49867.575061798096,49777.78615093231,49707.83754825592,49664.51463031769,49652.69452857971,49675.02312374115,49732.233885765076,49822.33328342438,49938.736461639404,50070.322991371155,50204.422015190125,50330.18870353699,50440.17322254181,50530.14464187622,50598.71902179718,50648.03053855896,50684.26938152313,50716.17960071564,50751.787199020386,50794.68100643158,50841.51251888275,50882.742109298706,50906.54779338837,50903.265703201294,50867.83766365051,50799.95722579956,50703.53561782837,50586.52240753174,50460.190435409546,50337.17722320557,50229.68439292908,50148.76839923859,50102.76511383057,50093.921615600586,50116.742339134216,50160.90279197693,50215.6400976181,50271.4692773819,50320.2120847702,50355.7216091156,50374.64963722229,50376.52280044556,50363.981815338135,50342.93634414673,50321.39168548584,50307.32961559296,50306.88213634491,50322.93488121033,50354.302547454834,50396.38720417023,50443.52990627289,50491.75876235962,50540.229835510254,50590.58194923401,50644.446583747864,50700.79059123993,50755.44030761719,50802.90668678284,50838.93890953064,50862.86570072174,50878.53355884552,50892.60677051544,50911.388805389404,50938.64658164978,50974.96277332306,51017.80086517334,51062.41791725159,51103.9441652298,51139.61309051514,51169.7825050354,51197.56140613556,51227.42973136902,51263.391651153564,51307.62204456329,51360.110847473145,51419.2313709259,51482.968957901,51549.96657848358,51619.45195102692,51690.354155540466,51761.207255363464,51831.489228248596,51902.7551240921,51977.88559913635,52058.91948032379,52145.337240219116,52234.06083679199,52320.6313829422,52400.27603721619,52468.45935058594,52521.19428920746,52555.69205856323,52571.79532337189,52573.16627216339,52566.53994369507,52559.417649269104,52558.30096530914,52568.45088100433,52594.40980052948,52639.86379241943,52705.80285644531,52787.935567855835,52876.258118629456,52958.206807136536,53023.12708377838,53064.6329202652,53080.00039386749,53068.58811664581,53031.45035076141,52972.19305038452,52897.299268722534,52814.762771606445,52732.08031177521,52655.574449539185,52590.9935092926,52543.150228500366,52514.21585178375,52503.114371299744,52506.93165206909,52522.3881111145,52546.02114391327,52574.09125137329,52603.361329078674,52632.11038684845,52660.492109298706,52690.36793041229,52724.82392120361,52767.09801864624,52818.48984050751,52876.088572502136,52932.41702270508,52977.625759124756,53002.9984998703,53004.19928646088,52982.810985565186,52945.298555374146,52899.7440738678,52852.32004928589,52805.879490852356,52760.98590660095,52717.397064208984,52674.55279159546,52632.26013946533,52592.39408683777,52559.18278312683,52536.598368644714,52525.68573284149,52524.384017944336,52528.40095806122,52531.60347175598,52527.392473220825,52511.60572433472,52484.66180038452,52451.320444107056,52418.09831237793,52389.91998195648,52368.60393619537,52353.21460342407,52340.67901802063,52327.271768569946,52311.11192512512,52292.989132881165,52274.46766471863,52256.030955314636,52237.518944740295,52219.87289714813,52205.82326793671,52198.45379257202,52199.01178359985,52205.8277053833,52214.34567070007,52217.577865600586,52207.40337944031,52177.119176864624,52123.995738983154,52050.133436203,51961.51198196411,51866.192544937134,51772.48519515991,51687.62660598755,51616.90977668762,51562.87983703613,51525.01001548767,51500.60697174072,51486.43268966675,51479.462478637695,51476.59862136841,51475.11476898193,51473.74402427673,51472.23560142517,51469.8704662323,51465.357833862305,51458.141386032104,51448.746030807495,51436.73672866821,51418.22850227356,51385.91589355469,51331.43290710449,51247.761655807495,51131.28995513916,50984.585317611694,50818.80902671814,50652.69961357117,50507.296813964844,50399.32853889465,50337.20398902893,50321.10063171387,50344.93290901184,50398.020875930786,50467.10925292969,50538.76456069946,50600.45918464661,50640.8701839447,50651.63989639282,50629.80690193176,50577.820222854614,50501.314012527466,50407.869329452515,50307.07519340515,50209.22163581848,50122.67092132568,50052.6598815918,50002.2853679657,49973.97534751892,49970.118267059326,49992.333393096924,50038.90720939636,50101.61729431152,50165.38243484497,50212.3018245697,50227.25561904907,50201.4061832428,50132.940994262695,50026.39736175537,49891.20956039429,49739.539892196655,49584.02500343323,49435.81457710266,49302.95008277893,49189.61714935303,49096.43568992615,49021.50888252258,48961.98504257202,48915.308334350586,48879.35883331299,48851.55421447754,48827.6392993927,48801.43077468872,48765.83473968506,48713.88872718811,48639.741386413574,48540.53596305847,48418.46173286438,48281.16770744324,48139.8694934845,48006.1835899353,47889.052642822266,47792.69323348999,47716.679025650024,47657.995626449585,47612.858097076416,47576.94278335571,47544.986989974976,47510.92630004883,47468.138051986694,47409.138467788696,47326.07382392883,47213.43875694275,47071.322103500366,46906.16227912903,46728.732818603516,46551.243255615234,46384.45188713074,46234.70042800903,46101.50539970398,45977.582538604736,45852.75225830078,45719.558530807495,45576.10395050049,45424.81884765625,45269.70248603821,45114.3761844635,44961.84296607971,44815.93131637573,44682.73031044006,44569.53630447388,44481.10296058655,44416.22057914734,44367.87631034851,44326.7776222229,44284.8411655426,44236.26191520691,44177.36977005005,44107.2723865509,44028.85473060608,43948.32567024231,43872.23017692566,43802.77540206909,43734.692279815674,43656.96502685547,43558.829973220825,43435.78490066528,43292.06534385681,43138.728649139404,42989.393657684326,42857.115072250366,42753.067920684814,42685.20337867737,42657.09442138672,42668.72736167908,42718.92258834839,42806.69919013977,42929.42557144165,43080.00582122803,43247.34140968323,43419.632667541504,43587.190742492676,43743.83889770508,43887.563356399536,44020.40620994568,44146.8108921051,44270.150354385376,44389.56464576721,44499.67105293274,44592.21387863159,44657.603775024414,44686.75965309143,44673.34606552124,44614.527154922485,44509.63705253601,44358.76534843445,44163.21187400818,43927.48731994629,43660.90329551697,43377.11427497864,43091.28239631653,42815.947717666626,42557.85458755493,42317.25603103638,42089.125186920166,41865.40531539917,41638.414836883545,41404.99745178223,41169.2232170105,40941.33796310425,40732.72582435608,40549.64637565613,40390.70605659485,40249.300064086914,40116.53151321411,39982.505027770996,39838.51993370056,39680.79189872742,39512.680574417114,39342.768812179565,39180.10149002075,39030.6538734436,38896.708351135254,38777.28696060181,38668.85674858093,38567.5412902832,38471.713552474976,38381.752882003784,38296.98565864563,38213.96524810791,38128.74108886719,38040.328035354614,37951.731983184814,37868.93020057678,37799.00251579285,37746.89875793457,37711.80522727966,37686.19497489929,37658.873094558716,37619.89161682129,37564.29649734497,37492.89042472839,37409.98990440369,37320.3040561676,37227.303062438965,37132.99828338623,37037.956912994385,36941.24032211304,36840.30359458923,36731.55460548401,36612.776123046875,36486.80463409424,36363.10396575928,36254.266328811646,36168.85962867737,36106.173778533936,36056.994970321655,36008.27291107178,35947.58248138428,35866.1746673584,35759.89304924011,35627.79298019409,35470.86388587952,35293.006187438965,35102.630920410156,34912.18761062622,34736.02494812012,34587.2808303833,34473.61344718933,34393.96040916443,34338.830099105835,34293.611362457275,34243.318338394165,34177.20019721985,34090.73684120178,33984.50896072388,33862.20692253113,33728.748304367065,33588.36381340027,33443.4533996582,33294.38166427612,33139.952226638794,32979.207538604736,32813.88756942749,32648.775102615356,32488.604146957397,32333.88307952881,32179.56262397766,32017.842071533203,31842.35613822937,31650.882974624634,31446.464616775513,31237.120065689087,31033.503368377686,30845.061862945557,30676.29677581787,30524.500217437744,30380.329399108887,30232.656616210938,30076.48833847046,29917.423099517822,29766.98983001709,29632.223587036133,29508.84397506714,29384.598392486572,29249.830642700195,29105.71992111206,28965.170112609863,28847.874282836914,28772.06060028076,28746.14574432373,28764.64887237549,28810.273361206055,28859.83203125,28890.632637023926,28885.938426971436,28838.625717163086,28750.822551727295,28629.336875915527,28481.5771484375,28315.506145477295,28140.86828994751,27968.51531600952,27808.938343048096,27671.899517059326,27566.56683731079,27499.631805419922,27471.145538330078,27471.866146087646,27484.82809829712,27490.220825195312,27471.37766647339,27419.170417785645,27332.595294952393,27215.92205810547,27074.820503234863,26914.191955566406,26739.842803955078,26562.123950958252,26396.407096862793,26259.93870162964,26168.720081329346,26135.9563331604,26171.21999359131,26277.78158569336,26446.838844299316,26653.086601257324,26858.596633911133,27025.96328353882,27132.877563476562,27178.439109802246,27178.10389328003,27152.79797744751,27120.509853363037,27093.378215789795,27078.1417427063,27078.601066589355,27098.825485229492,27143.60711288452,27215.045749664307,27308.429027557373,27410.799785614014,27503.35956954956,27566.87631225586,27587.92295074463,27563.203243255615,27500.408721923828,27415.722583770752,27328.438037872314,27254.276794433594,27200.814113616943,27167.24021911621,27147.52960586548,27134.850032806396,27125.46816635132,27120.56703186035,27124.842929840088,27143.01893234253,27177.342529296875,27227.33301925659,27290.428985595703,27362.49520111084,27438.45547103882,27513.131912231445,27581.651596069336,27639.793937683105,27685.37942123413,27719.6375579834,27746.614307403564,27771.460960388184,27800.237422943115,27842.04356765747,27910.328010559082,28017.998565673828,28166.76024246216,28340.690937042236,28511.915657043457,28653.51332473755,28749.33348464966,28796.330947875977,28801.811199188232,28778.88039779663,28740.981170654297,28696.38433456421,28644.950115203857,28578.18679046631,28482.687713623047,28348.813583374023,28182.969200134277,28012.968547821045,27878.168827056885,27810.55685043335,27820.579071044922,27895.549839019775,28008.293418884277,28128.021236419678,28228.47191619873,28293.847576141357,28321.707149505615,28320.601264953613,28305.387229919434,28293.88706970215,28303.626983642578,28347.988807678223,28434.252555847168,28564.2520904541,28735.233505249023,28939.070022583008,29161.206295013428,29382.07593536377,29581.583209991455,29744.67978668213,29865.669395446777,29949.613636016846,30009.896812438965,30062.446311950684,30119.406620025635,30186.07529449463,30262.24271774292,30344.921798706055,30430.36981201172,30516.954570770264,30608.08166885376,30711.175914764404,30832.723697662354,30973.92010498047,31130.094802856445,31293.341384887695,31455.937099456787,31612.77394104004,31761.894107818604,31902.73752975464,32033.2576713562,32148.168670654297,32239.936531066895,32302.374019622803,32334.39443588257,32341.333599090576,32333.408321380615,32321.788387298584,32313.676288604736,32309.391986846924,32302.868644714355,32284.325523376465,32244.42339324951,32179.647903442383,32096.476734161377,32010.78213119507,31942.470127105713,31909.723999023438,31925.525184631348,31995.187942504883,32114.395610809326,32269.307735443115,32439.559326171875,32603.24382019043,32742.04465866089,32844.24745941162,32904.85682296753,32924.50674057007,32908.122356414795,32863.13074874878,32798.45136642456,32724.948246002197,32654.796058654785,32597.9044380188,32558.542026519775,32535.80881500244,32526.60007095337,32527.858352661133,32537.865661621094,32557.58868408203,32590.937450408936,32642.663818359375,32715.490474700928,32808.728202819824,32918.687843322754,33040.04927062988,33167.458908081055,33296.968017578125,33426.99206161499,33558.112354278564,33691.16871261597,33824.851581573486,33955.53136444092,34080.076316833496,34198.935203552246,34316.86627578735,34441.24698257446,34578.66355133057,34730.744804382324,34891.75545883179,35049.989196777344,35191.51361846924,35303.41477584839,35376.21966934204,35406.268573760986,35396.900733947754,35357.039054870605,35297.63720703125,35227.71882247925,35151.78890609741,35069.45260620117,34977.06918716431,34871.412200927734,34754.37947463989,34634.708351135254,34523.865032196045,34429.67789077759,34353.066692352295,34289.24454116821,34231.93869781494,34177.89688873291,34128.67169189453,34088.876361846924,34062.63387298584,34050.559452056885,34048.80827331543,34050.52151107788,34048.92385101318,34040.38048171997,34025.647399902344,34008.95698928833,33995.79130935669,33990.29076385498,33993.625774383545,34004.2232093811,34018.890396118164,34033.83909988403,34045.92680358887,34053.89915084839,34058.31502914429,34060.07928466797,34059.21439361572,34054.40190124512,34042.620277404785,34019.98006820679,33985.26336288452,33942.85751724243,33900.2114982605,33862.98579406738,33834.41376495361,33816.86814117432,33810.39761734009,33810.730503082275,33812.22417449951,33813.41440200806,33817.6198425293,33828.29940032959,33846.00732040405,33868.58096694946,33891.216495513916,33907.23950576782,33911.213958740234,33901.37769317627,33878.9941368103,33846.277976989746,33804.79122543335,33754.59525680542,33694.61587905884,33624.55308532715,33546.72401046753,33466.01606750488,33388.57802963257,33320.76873779297,33268.543910980225,33236.472789764404,33225.981521606445,33234.225173950195,33255.52852630615,33284.54446411133,33318.26010513306,33355.6734085083,33395.76850891113,33435.41748428345,33469.8021812439,33495.19554901123,33510.32576370239,33515.07181930542,33509.83949661255,33498.223278045654,33490.398220062256,33502.03388977051,33547.92757797241,33635.11269378662,33759.81783294678,33909.70157241821,34070.377628326416,34231.59281158447,34388.43723678589,34539.23386001587,34683.54700088501,34820.08750915527,34945.33266067505,35054.920276641846,35146.44926452637,35221.47029495239,35286.67133331299,35354.36198425293,35440.768856048584,35560.961071014404,35721.92646026611,35917.79167175293,36131.092807769775,36339.816329956055,36525.2467880249,36676.21228790283,36789.318157196045,36867.01388168335,36914.791763305664,36938.45728683472,36943.18459701538,36934.84199523926,36921.49346160889,36912.843074798584,36917.51551437378,36939.98414993286,36979.36025238037,37031.007442474365,37089.552474975586,37150.64440536499,37211.03518295288,37268.609477996826,37322.273765563965,37370.623569488525,37410.53201675415,37437.66989135742,37449.00891113281,37445.50373458862,37432.824378967285,37419.40512084961,37413.42629241943,37420.433307647705,37441.47430038452,37472.43259429932,37506.080265045166,37535.40951919556,37555.70153427124,37565.15392303467,37564.34398651123,37555.19570541382,37540.84308242798,37524.99973297119,37509.22280502319,37491.10040283203,37466.102031707764,37431.19077682495,37387.601261138916,37341.597412109375,37302.30612945557,37277.60326004028,37271.67292404175,37286.01642990112,37321.33152770996,37377.89921951294,37455.21632003784,37551.8317565918,37664.8791847229,37789.08097457886,37916.622467041016,38039.38982009888,38152.21911621094,38253.92314910889,38345.789947509766,38430.19917297363,38510.09209442139,38587.90969085693,38664.269927978516,38737.91913604736,38806.77254486084,38868.48838806152,38919.95558166504,38957.09323120117,38976.8031539917,38979.53372955322,38968.60344696045,38947.26968383789,38918.374450683594,38886.58455657959,38859.4623336792,38846.30236816406,38855.57506561279,38891.23750305176,38949.222175598145,39016.63414764404,39074.14839172363,39100.227783203125,39076.33126068115,38991.63619232178,38844.74280548096,38641.64432525635,38392.15034484863,38107.177505493164,37797.12277984619,37471.07021331787,37137.560302734375,36806.24257659912,36488.53029632568,36196.789947509766,35941.9652633667,35729.826889038086,35558.83351135254,35422.30613708496,35312.57982635498,35223.15972137451,35148.622383117676,35084.48947143555,35028.02379608154,34978.88604736328,34938.6689453125,34909.9026260376,34895.60955810547,34899.29286956787,34924.54413604736,34974.25244140625,35049.80186462402,35150.574615478516,35274.64040374756,35420.48034667969,35587.63939666748,35775.60083770752,35982.72365570068,36206.22486114502,36442.18968963623,36685.18029785156,36928.60065460205,37166.437271118164,37395.35690307617,37615.463218688965,37828.62422180176,38036.06095123291,38237.914291381836,38433.43868255615,38619.54056549072,38789.4796295166,38933.741706848145,39042.40840911865,39108.11178588867,39128.999824523926,39110.491035461426,39064.64669036865,39007.067070007324,38952.13417816162,38908.13581085205,38874.909439086914,38846.2739944458,38815.407554626465,38777.90074157715,38730.16027069092,38666.87698364258,38582.86531829834,38478.709732055664,38363.48782348633,38250.04041290283,38145.3125,38043.72449493408,37930.72578430176,37794.243309020996,37633.611236572266,37458.77675628662,37282.346839904785,37112.76599121094,36954.240379333496,36811.53259277344,36693.108810424805,36609.58190155029,36570.050704956055,36579.05352020264,36634.252014160156,36724.26469421387,36828.506202697754,36922.41468048096,36985.837982177734,37006.53537750244,36976.361503601074,36887.741775512695,36736.60744476318,36527.50994873047,36273.594467163086,35991.89295959473,35699.92583465576,35415.26643371582,35154.30044555664,34928.613121032715,34742.76403045654,34597.55567932129,34496.73555755615,34450.08380126953,34470.316581726074,34568.12233734131,34748.11952209473,35005.62865447998,35327.43298339844,35698.389404296875,36107.09767150879,36544.009185791016,36995.70375061035,37443.53974914551,37868.27059173584,38254.6081161499,38591.842613220215,38872.08995056152,39087.3885345459,39229.1778717041,39294.413566589355,39290.721351623535,39231.0383605957,39124.84613800049,38976.90467834473,38791.55728149414,38574.84852600098,38329.688636779785,38047.42987060547,37709.41690826416,37303.3932800293,36837.46351623535,36337.15171813965,35833.24124145508,35352.56072998047,34914.07865905762,34529.18721008301,34204.591941833496,33944.4135055542,33749.84509277344,33616.81206512451,33532.78242492676,33477.28885650635,33429.78298187256,33378.214210510254,33319.6794052124,33256.151138305664,33191.65175628662,33129.755516052246,33069.66501617432,33003.84917449951,32919.55635070801,32802.93957519531,32643.904525756836,32441.3846282959,32208.077033996582,31970.473205566406,31761.194465637207,31606.300903320312,31514.054649353027,31472.660636901855,31458.901809692383,31448.64984893799,31422.640098571777,31372.247749328613,31303.965545654297,31233.57169342041,31174.362106323242,31131.305267333984,31102.01773071289,31080.839752197266,31065.00141143799,31058.98625946045,31071.795440673828,31108.932624816895,31168.12387084961,31243.93960571289,31335.15916442871,31446.274703979492,31583.586296081543,31751.2329788208,31949.10269165039,32172.218673706055,32411.366874694824,32654.630920410156,32889.81031036377,33107.89001464844,33306.241928100586,33489.08640289307,33664.80854797363,33842.325119018555,34028.37026977539,34226.17223358154,34436.09923553467,34658.76135253906,34898.264808654785,35162.10730743408,35458.23016357422,35791.96553039551,36163.57646179199,36567.20064544678,36992.25637054443,37426.017486572266,37855.87759399414,38271.11260223389,38664.00663757324,39030.58248138428,39370.34477233887,39683.34648895264,39966.70443725586,40215.69292449951,40429.10031890869,40613.08897399902,40780.507652282715,40947.0972366333,41126.33354949951,41324.28868103027,41537.46161651611,41755.58876037598,41966.893295288086,42161.86730194092,42335.03113555908,42485.71131896973,42617.121589660645,42732.86029815674,42832.808181762695,42911.51862335205,42959.86516571045,42968.88706970215,42934.10888671875,42858.00975036621,42749.61087799072,42622.16692352295,42490.04689788818,42365.908142089844,42258.84147644043,42172.88438415527,42106.42288970947,42053.55645751953,42006.11534881592,41954.75958251953,41889.55545806885,41800.59383392334,41678.82092285156,41517.72075653076,41315.69666290283,41077.65160369873,40814.41427612305,40539.55578613281,40264.794494628906,39996.978858947754,39738.51133728027,39489.8842086792,39252.041847229004,39027.47880554199,38820.233810424805,38635.41654205322,38477.86933898926,38349.713790893555,38248.29119873047,38165.57530212402,38089.38349151611,38007.26865386963,37912.00297546387,37804.40676879883,37691.04200744629,37579.68682098389,37476.64670562744,37385.99047088623,37309.201515197754,37245.90232849121,37196.17881011963,37162.56770324707,37149.38688659668,37159.05805206299,37188.24094390869,37227.72052001953,37265.81004333496,37291.6538772583,37297.553886413574,37281.36136627197,37247.58168029785,37205.251136779785,37163.66638183594,37129.23874664307,37105.002502441406,37091.45127105713,37087.55418395996,37091.95879364014,37103.718589782715,37121.776596069336,37143.87680053711,37166.58908081055,37187.81944274902,37210.0736618042,37240.47068023682,37287.677574157715,37359.4962310791,37461.659004211426,37596.249099731445,37760.610290527344,37948.35752105713,38151.500579833984,38361.88835144043,38572.11731719971,38776.12601470947,38968.37242126465,39142.15068817139,39289.66013336182,39404.24781036377,39482.53569030762,39525.4536819458,39539.199645996094,39535.868225097656,39531.45210266113,39540.52006530762,39570.825355529785,39621.646408081055,39685.88695526123,39753.3907623291,39813.77699279785,39858.41580963135,39881.854652404785,39883.25888824463,39867.27603149414,39842.72216796875,39819.25793457031,39804.364974975586,39802.20831298828,39814.1501083374,39839.83248138428,39877.856132507324,39925.906829833984,39981.018562316895,40040.3245010376,40101.08897399902,40159.16583251953,40207.63292694092,40237.27698516846,40238.35495758057,40202.51593017578,40123.8508605957,39998.55204772949,39824.721336364746,39604.36472320557,39346.82807922363,39070.591735839844,38801.16432952881,38565.782485961914,38387.80374145508,38282.840187072754,38256.869873046875,38305.973793029785,38417.425605773926,38571.81930541992,38745.598541259766,38913.86548614502,39053.86235046387,39148.78023529053,39190.7134475708,39181.037994384766,39127.87447357178,39043.136962890625,38940.91208648682,38835.52806854248,38737.552406311035,38649.37963104248,38564.43787384033,38471.61163330078,38361.7360458374,38231.92295074463,38086.27198791504,37934.20414733887,37787.805572509766,37658.28010559082,37552.14394378662,37469.47031402588,37405.39716339111,37353.52941131592,37309.429122924805,37272.71942901611,37246.317390441895,37233.08026123047,37232.751541137695,37241.61916351318,37254.37554168701,37266.706283569336,37277.85277557373,37292.383071899414,37320.30944061279,37374.32082366943,37463.59224700928,37587.55020904541,37734.75548553467,37887.6304397583,38029.104988098145,38147.516830444336,38238.64292907715,38305.08638000488,38353.91648101807,38393.93948364258,38433.73977661133,38481.12783050537,38543.59362792969,38628.00043487549,38738.35171508789,38873.01245880127,39023.86304473877,39177.98642730713,39320.10395812988,39434.94502258301,39510.71210479736,39542.567642211914,39533.47540283203,39492.38885498047,39431.03779602051,39360.574394226074,39290.053955078125,39226.96951293945,39177.97594451904,39148.8542175293,39144.18972015381,39166.87892913818,39216.822814941406,39289.64961242676,39377.663345336914,39472.96029663086,39569.99250793457,39665.74398803711,39758.90393829346,39850.38999938965,39945.01802825928,40051.53044128418,40178.41008758545,40327.32373046875,40490.13005065918,40652.22435760498,40798.470207214355,40916.4375,40996.76377105713,41034.359786987305,41030.34826660156,40991.85715484619,40930.12985229492,40858.60467529297,40791.099113464355,40740.82382965088,40721.50965881348,40748.965255737305,40837.47183227539,40988.582374572754,41180.6226272583,41370.651611328125,41509.841552734375,41561.5023727417,41510.363594055176,41361.361808776855,41134.257720947266,40858.281257629395,40566.04909515381,40285.92597198486,40035.430114746094,39819.913665771484,39636.3370513916,39477.828063964844,39336.57787322998,39204.77161407471,39073.73952484131,38932.731788635254,38769.73068237305,38575.949127197266,38351.92101287842,38109.32118225098,37865.14073944092,37633.740882873535,37425.20413970947,37248.27049255371,37109.72463226318,37010.23805999756,36944.3279876709,36906.51810455322,36895.76026916504,36912.286880493164,36952.56728363037,37009.40710449219,37074.67752075195,37140.73927307129,37203.16239929199,37264.6042098999,37332.930488586426,37411.740867614746,37490.9029006958,37545.950103759766,37548.41142272949,37478.97040557861,37333.805000305176,37123.707191467285,36869.34812927246,36593.69707489014,36315.13011932373,36046.25151824951,35797.31130981445,35578.46891784668,35398.35418701172,35260.96050262451,35164.33149719238,35103.31930541992,35074.59156036377,35079.77732086182,35125.315521240234,35219.828872680664,35369.312019348145,35569.3010635376,35798.11957550049,36021.99174499512,36210.74806213379,36347.352867126465,36426.07582092285,36449.75225830078,36429.62690734863,36380.783363342285,36312.01639556885,36220.15379333496,36095.65441131592,35933.329444885254,35737.95291900635,35521.510887145996,35296.93239593506,35075.33036804199,34868.62648773193,34692.44297027588,34562.39835357666,34484.450859069824,34449.80559539795,34440.8122177124,34440.690017700195,34438.764389038086,34431.79202270508,34423.16716003418,34418.98387145996,34423.5057220459,34438.15658569336,34461.635681152344,34487.567642211914,34503.814544677734,34497.73110961914,34462.25875854492,34395.77699279785,34297.62612915039,34166.49914550781,34003.477615356445,33815.525314331055,33615.50028991699,33417.97346496582,33234.81900024414,33075.58752441406,32950.42443847656,32868.48519897461,32832.02880859375,32833.9274597168,32861.19203186035,32899.78189086914,32938.230880737305,32970.83874511719,32999.22904968262,33029.73988342285,33067.297454833984,33111.31001281738,33157.427505493164,33201.69802856445,33242.60792541504,33281.308044433594,33321.60047912598,33369.15379333496,33429.08787536621,33503.35368347168,33590.31759643555,33685.999420166016,33784.192443847656,33876.44102478027,33955.63911437988,34020.5567779541,34074.67353820801,34121.146713256836,34160.77781677246,34193.197036743164,34217.773986816406,34234.795806884766,34248.480407714844,34269.44854736328,34313.27925109863,34395.125411987305,34523.58418273926,34697.59962463379,34908.07843017578,35142.96696472168,35392.57502746582,35651.31336975098,35913.96504211426,36170.50749206543,36406.08494567871,36605.665435791016,36758.22653198242,36859.458984375,36913.61706542969,36932.96342468262,36934.47709655762,36935.78649902344,36951.522232055664,36990.35185241699,37054.086822509766,37139.840072631836,37243.5417175293,37362.53269958496,37496.195739746094,37644.17411804199,37803.648178100586,37968.86360168457,38133.32336425781,38291.94430541992,38441.84440612793,38582.516845703125,38715.56411743164,38843.28973388672,38966.56147766113,39083.36457824707,39188.96611022949,39277.675033569336,39344.729583740234,39387.06983947754,39404.33171081543,39400.517181396484,39383.43327331543,39360.9630279541,39337.93803405762,39316.530044555664,39298.54753112793,39286.68832397461,39283.741775512695,39290.633071899414,39305.19975280762,39322.50534057617,39335.51152038574,39336.349212646484,39319.56896972656,39285.42367553711,39240.445220947266,39195.64826965332,39162.702560424805,39148.177795410156,39149.93327331543,39159.73828125,39168.305084228516,39166.759674072266,39146.15983581543,39099.10583496094,39022.915924072266,38921.616470336914,38804.964416503906,38685.35778808594,38574.995025634766,38484.016540527344,38419.57986450195,38386.392807006836,38388.15303039551,38428.09976196289,38507.98759460449,38626.76467895508,38780.16780090332,38961.315002441406,39162.58805847168,39378.5001373291,39607.160873413086,39848.890548706055,40103.7080078125,40369.707580566406,40642.49656677246,40914.89727783203,41176.921295166016,41417.451232910156,41627.66296386719,41803.64617919922,41946.81593322754,42062.78674316406,42159.309326171875,42243.89535522461,42322.20526123047,42397.86231994629,42473.14418029785,42549.64823913574,42629.04104614258,42713.23066711426,42802.33573913574,42892.10966491699,42974.07766723633,43037.87567138672,43073.8122253418,43075.253814697266,43039.95803833008,42969.02618408203,42864.34521484375,42727.37301635742,42560.57580566406,42369.52883911133,42163.39535522461,41954.01902770996,41754.791900634766,41578.790267944336,41435.19415283203,41325.97366333008,41246.191162109375,41187.263107299805,41139.83262634277,41095.56465148926,41048.507873535156,40994.848403930664,40930.797271728516,40850.782638549805,40747.40953063965,40612.87399291992,40441.157485961914,40230.52333068848,39985.179946899414,39714.55322265625,39430.62489318848,39145.43144226074,38869.820236206055,38613.28771972656,38384.28742980957,38190.637268066406,38039.843658447266,37938.17742919922,37887.8134765625,37884.706115722656,37919.86291503906,37982.063568115234,38059.60902404785,38142.48469543457,38225.69041442871,38310.58760070801,38402.07441711426,38503.996826171875,38616.27262878418,38734.95031738281,38854.24787902832,38968.53024291992,39073.11567687988,39163.866775512695,39235.551208496094,39279.857177734375,39284.67727661133,39235.36567687988,39117.238372802734,38918.03071594238,38629.84992980957,38250.63265991211,37784.49868774414,37240.90280151367,36633.74658203125,35981.05683898926,35304.370849609375,34627.07029724121,33972.21104431152,33360.80155944824,32810.22328186035,32331.712692260742,31927.974197387695,31593.60287475586,31318.171173095703,31089.33348083496,30895.066162109375,30726.138717651367,30578.70249938965,30454.994567871094,30361.380584716797,30305.383255004883,30293.28614807129,30329.01739501953,30414.441665649414,30550.306594848633,30737.089431762695,30975.708938598633,31267.71469116211,31613.978927612305,32012.426864624023,32456.717742919922,32936.513748168945,33438.58773803711,33948.3214263916,34451.7116394043,34937.02722167969,35394.259338378906,35813.12658691406,36183.27314758301,36497.387756347656,36753.90783691406,36957.11294555664,37115.39451599121,37239.29438781738,37339.85479736328,37427.08969116211,37509.18928527832,37592.76161193848,37683.20167541504,37785.0915222168,37902.73454284668,38039.49443054199,38195.53854370117,38365.790756225586,38539.95637512207,38704.99848937988,38848.942459106445,38964.17837524414,39049.00196838379,39107.269454956055,39146.486740112305,39175.0811920166,39200.402252197266,39228.26388549805,39263.03823852539,39307.2448425293,39361.27638244629,39424.337493896484,39496.03421020508,39577.164001464844,39668.81396484375,39769.88488769531,39874.98956298828,39975.3576965332,40062.90347290039,40134.847427368164,40195.85266113281,40256.02243041992,40325.74043273926,40410.30325317383,40506.825286865234,40604.80433654785,40690.146560668945,40750.047927856445,40776.32637023926,40766.89112854004,40725.45050048828,40659.5772857666,40578.295181274414,40490.32861328125,40403.13491821289,40322.99789428711,40255.849548339844,40207.087661743164,40180.45967102051,40178.04454040527,40201.32432556152,40251.28852844238,40326.95445251465,40423.94058227539,40534.00996398926,40644.85400390625,40741.07846069336,40808.18916320801,40837.22100830078,40826.25,40779.571716308594,40706.77388000488,40621.34111022949,40538.24662780762,40471.47575378418,40432.26594543457,40427.453186035156,40457.40298461914,40514.53804016113,40584.304763793945,40650.04867553711,40700.085021972656,40732.24630737305,40754.02279663086,40779.65954589844,40824.51127624512,40897.22537231445,40993.577209472656,41096.97286987305,41186.50245666504,41246.94268798828,41273.06367492676,41266.20080566406,41229.386947631836,41167.31101989746,41089.2131652832,41010.10264587402,40948.70066833496,40922.09629821777,40939.51853942871,40998.64678955078,41084.918365478516,41174.39390563965,41242.22319030762,41273.56434631348,41269.11296081543,41241.80989074707,41208.56785583496,41183.360595703125,41174.23699951172,41181.22555541992,41193.709548950195,41192.66731262207,41160.26629638672,41088.721939086914,40981.47378540039,40849.567443847656,40707.728103637695,40570.53982543945,40449.37683105469,40353.07498168945,40291.08485412598,40271.44630432129,40290.76037597656,40325.70561218262,40336.6809387207,40281.36436462402,40129.20799255371,39871.163818359375,39521.53788757324,39112.47221374512,38685.54884338379,38284.72961425781,37950.61909484863,37713.632232666016,37588.547790527344,37574.190658569336,37656.698013305664,37815.5221862793,38031.204010009766,38287.68685913086,38565.13693237305,38832.275619506836,39049.97799682617,39184.25727844238,39216.60302734375,39146.12855529785,38986.595153808594,38761.16891479492,38495.58808898926,38211.45655822754,37922.949127197266,37638.069747924805,37361.816802978516,37098.066833496094,36849.27716064453,36615.5919342041,36395.25360107422,36185.88800048828,35985.52262878418,35793.98390197754,35614.379943847656,35452.37088012695,35312.91943359375,35197.839416503906,35107.34735107422,35042.98828125,35005.57534790039,34988.465255737305,34973.797607421875,34936.251068115234,34851.54725646973,34704.1774597168,34491.67074584961,34225.14665222168,33925.5076751709,33616.84150695801,33321.11503601074,33055.98780822754,32834.07176208496,32661.324996948242,32535.06185913086,32444.945083618164,32378.47283935547,32327.550659179688,32291.105270385742,32272.451370239258,32274.315826416016,32295.375747680664,32330.667877197266,32374.59568786621,32423.150650024414,32474.06871032715,32526.106536865234,32578.87077331543,32633.013732910156,32689.489852905273,32748.215118408203,32808.15280151367,32869.44282531738,32935.44152832031,33012.12178039551,33105.404373168945,33219.435974121094,33356.663513183594,33518.07847595215,33702.867095947266,33907.94061279297,34128.00959777832,34356.34899902344,34585.53852844238,34808.084411621094,35017.96371459961,35213.16020202637,35397.004638671875,35576.21911621094,35757.069244384766,35943.09326171875,36135.59098815918,36335.09063720703,36541.735260009766,36754.60186767578,36971.66989135742,37191.35307312012,37414.451889038086,37644.87609863281,37888.262603759766,38148.551330566406,38424.759536743164,38711.14131164551,39000.983627319336,39290.77226257324,39581.25596618652,39875.189376831055,40174.720962524414,40481.27079772949,40797.068786621094,41124.12188720703,41459.71537780762,41793.94006347656,42112.5821685791,42401.76628112793,42650.69366455078,42852.36740112305,43003.02169799805,43101.270935058594,43148.22457885742,43148.53674316406,43110.980712890625,43047.13136291504,42968.40278625488,42883.629791259766,42798.92637634277,42719.07403564453,42648.31034851074,42589.821212768555
-709.3292573773624,-5779.771949194711,-23310.987750428252,-63587.75687266454,-134801.05605187145,-240300.19014155987,-378024.908255822,-541288.1752943221,-720262.7711353537,-903689.5698662712,-1080474.4370848592,-1240971.9084722828,-1377858.2547357548,-1486574.3836713359,-1565377.1691889092,-1615077.3775857426,-1638560.886077121,-1640189.5935877115,-1625167.0850356221,-1598939.139383942,-1566682.4142121375,-1532914.9822354019,-1501243.0282574594,-1474241.8626387715,-1453455.1204515696,-1439486.2216919959,-1432154.0965695083,-1430686.7837613523,-1433927.422353804,-1440529.3920978308,-1449124.6825202703,-1458457.935609877,-1467481.3870144486,-1475407.98295933,-1481726.3850696683,-1486186.7563023567,-1488766.6306124926,-1489624.2431416512,-1489045.2321709394,-1487388.8307374716,-1485039.3628412485,-1482366.229881525,-1479692.9471702576,-1477275.3266171217,-1475289.586788416,-1473831.203174591,-1472923.45516932,-1472531.846880436,-1472580.59987998,-1472969.5077893734,-1473589.2335145473,-1474332.8549394608,-1475103.9500341415,-1475822.8474030495,-1476430.9336173534,-1476891.8725001812,-1477190.250035286,-1477329.4581656456,-1477328.9719161987,-1477219.4251642227,-1477036.017686367,-1476813.2225527763,-1476581.915750742,-1476367.7038769722,-1476189.4252567291,-1476057.7813382149,-1475974.599852085,-1475933.4153165817,-1475922.406835556,-1475929.293355465,-1475944.8666920662,-1475962.9575572014,-1475978.9391098022,-1475989.3880486488,-1475992.5655636787,-1475988.4874472618,-1475978.2668328285,-1475962.6245222092,-1475939.9624347687,-1475905.4890518188,-1475852.9971385002,-1475779.0552930832,-1475687.283422947,-1475589.7688131332,-1475503.3809576035,-1475443.0701036453,-1475418.0053329468,-1475432.116856575,-1475485.6680316925,-1475575.7486104965,-1475695.8423976898,-1475835.218993187,-1475978.9472084045,-1476109.1498422623,-1476207.837302208,-1476260.6940937042,-1476259.7564048767,-1476203.4415445328,-1476095.360095024,-1475944.7651920319,-1475769.0557489395,-1475594.6815567017,-1475452.1673955917,-1475366.7988586426,-1475351.2961864471,-1475404.0617265701,-1475511.8927783966,-1475654.206199646,-1475807.0324392319,-1475946.9250574112,-1476054.468035698,-1476116.638584137,-1476127.923046112,-1476090.2064142227,-1476011.557671547,-1475904.0466737747,-1475781.1778230667,-1475655.9777526855,-1475539.9166488647,-1475441.888053894,-1475367.1416435242,-1475317.153503418,-1475290.1521720886,-1475280.8067150116,-1475279.5938186646,-1475273.5764160156,-1475248.3209323883,-1475189.859457016,-1475087.4737758636,-1474938.6623268127,-1474754.8470020294,-1474562.8459205627,-1474397.9873008728,-1474291.3452835083,-1474258.9029197693,-1474298.0411167145,-1474390.965801239,-1474512.2333431244,-1474637.2481575012,-1474748.0206241608,-1474834.688009262,-1474894.8500347137,-1474931.685142517,-1474950.8066234589,-1474958.0659389496,-1474959.0674991608,-1474958.346572876,-1474957.5920181274,-1474954.2034130096,-1474941.4352874756,-1474910.4924259186,-1474853.8226642609,-1474768.2316913605,-1474656.5795497894,-1474527.3657093048,-1474392.328321457,-1474263.238752365,-1474149.262178421,-1474055.4907970428,-1473982.548915863,-1473926.9343891144,-1473882.0877609253,-1473840.1094932556,-1473793.6230545044,-1473737.2609062195,-1473667.7977104187,-1473583.158493042,-1473483.391719818,-1473373.662574768,-1473264.4916648865,-1473168.3285140991,-1473095.7197761536,-1473052.5196800232,-1473039.1180992126,-1473052.2121276855,-1473086.765625,-1473135.8079414368,-1473188.7486419678,-1473231.1245803833,-1473248.2150421143,-1473231.2803649902,-1473181.524307251,-1473108.2213287354,-1473023.264350891,-1472936.92269516,-1472856.424571991,-1472786.0956878662,-1472727.5501594543,-1472679.8417282104,-1472640.3466835022,-1472605.8789520264,-1472573.0586242676,-1472537.9269256592,-1472495.6055526733,-1472441.4386901855,-1472373.8423080444,-1472296.7146835327,-1472219.1541366577,-1472151.866355896,-1472101.8425750732,-1472069.2606430054,-1472049.3864746094,-1472036.7574234009,-1472026.7720680237,-1472014.647644043,-1471995.547870636,-1471967.1734733582,-1471932.2860794067,-1471898.502948761,-1471875.252418518,-1471870.0008850098,-1471885.8974227905,-1471921.0273590088,-1471968.2292060852,-1472015.8744392395,-1472051.3304290771,-1472065.7989349365,-1472056.4738121033,-1472026.0425605774,-1471981.9952697754,-1471934.61643219,-1471893.0719299316,-1471862.3908500671,-1471842.8070220947,-1471830.7689056396,-1471821.3631134033,-1471811.1693496704,-1471799.6544189453,-1471788.9020690918,-1471782.0159301758,-1471780.1823043823,-1471780.2110290527,-1471775.286972046,-1471758.740951538,-1471727.403869629,-1471682.7174072266,-1471630.7666397095,-1471581.2661209106,-1471544.6888809204,-1471528.8470230103,-1471536.758140564,-1471566.13571167,-1471609.9582977295,-1471657.8364105225,-1471698.5351791382,-1471723.4082870483,-1471728.6367645264,-1471714.3694000244,-1471682.489189148,-1471636.3020477295,-1471581.8661651611,-1471527.7467803955,-1471482.0245895386,-1471449.075706482,-1471428.9970245361,-1471419.5582351685,-1471418.3301086426,-1471423.3549346924,-1471432.533416748,-1471442.7244110107,-1471449.7309036255,-1471449.9013671875,-1471442.088508606,-1471427.6076583862,-1471408.2613754272,-1471384.666481018,-1471355.8450622559,-1471319.2753982544,-1471270.5956192017,-1471203.9248428345,-1471115.392150879,-1471008.9730529785,-1470898.4762573242,-1470802.8506469727,-1470739.1612701416,-1470717.8000183105,-1470740.8066558838,-1470802.3948822021,-1470890.9141693115,-1470991.3088378906,-1471086.7093963623,-1471159.8284683228,-1471196.6554031372,-1471191.562538147,-1471149.201713562,-1471081.7565002441,-1471004.4578399658,-1470931.4514541626,-1470872.8108673096,-1470833.3895874023,-1470813.2149505615,-1470808.5378570557,-1470813.090637207,-1470819.7382888794,-1470822.613143921,-1470818.482574463,-1470805.3205032349,-1470780.0192642212,-1470740.6155548096,-1470691.1885299683,-1470642.0907211304,-1470605.6204071045,-1470591.6892929077,-1470604.1824645996,-1470638.8767089844,-1470686.0534820557,-1470736.1821746826,-1470783.4113845825,-1470826.5416183472,-1470868.6757202148,-1470914.1755828857,-1470965.1379394531,-1471021.409866333,-1471082.7676391602,-1471149.639038086,-1471221.97315979,-1471297.590270996,-1471370.9270019531,-1471433.647354126,-1471477.7667999268,-1471498.3065795898,-1471492.8085327148,-1471460.1182250977,-1471401.8213348389,-1471325.1384124756,-1471242.902420044,-1471168.9417114258,-1471112.5088653564,-1471076.1950378418,-1471057.3510742188,-1471050.18258667,-1471047.5611572266,-1471041.9207305908,-1471023.3072814941,-1470977.450088501,-1470889.9323883057,-1470755.3003082275,-1470584.2229919434,-1470404.270614624,-1470252.6284484863,-1470162.6133270264,-1470150.9836883545,-1470212.4811706543,-1470323.7703552246,-1470455.6130218506,-1470586.9005737305,-1470710.946762085,-1470830.7956237793,-1470950.2523651123,-1471068.2487945557,-1471177.4249420166,-1471265.0261535645,-1471316.2775421143,-1471320.3699798584,-1471276.0487213135,-1471192.5127563477,-1471085.4906311035,-1470972.3651733398,-1470868.4813842773,-1470784.3625793457,-1470724.5274353027,-1470688.9235534668,-1470675.3529815674,-1470679.8798217773,-1470695.2857208252,-1470711.3802185059,-1470719.2522583008,-1470715.8986968994,-1470704.8684387207,-1470692.890762329,-1470685.0520477295,-1470681.1803283691,-1470675.5280761719,-1470660.326309204,-1470630.1536254883,-1470582.0126495361,-1470511.7556915283,-1470414.0435333252,-1470287.9761657715,-1470141.1252441406,-1469987.1867980957,-1469841.2904663086,-1469716.9999084473,-1469624.5269622803,-1469569.4433441162,-1469551.8545532227,-1469565.6547851562,-1469598.6206359863,-1469635.8397369385,-1469666.0687408447,-1469684.208984375,-1469686.4957580566,-1469667.0574798584,-1469623.206451416,-1469561.9334716797,-1469497.6837158203,-1469443.7318725586,-1469405.1726226807,-1469378.375289917,-1469356.3164520264,-1469334.1671295166,-1469310.808517456,-1469286.8435211182,-1469262.1807250977,-1469235.999420166,-1469208.7700805664,-1469183.7542572021,-1469166.1080169678,-1469159.4326171875,-1469162.4081115723,-1469168.8504180908,-1469170.9800567627,-1469163.2174682617,-1469144.0707092285,-1469114.4856872559,-1469074.1135864258,-1469019.5799865723,-1468946.5420837402,-1468853.6729125977,-1468744.881866455,-1468626.8403778076,-1468503.662261963,-1468374.6379394531,-1468237.6259307861,-1468093.7330474854,-1467947.8775177002,-1467805.276687622,-1467667.8633880615,-1467533.467224121,-1467397.8580627441,-1467258.7837219238,-1467119.8629455566,-1466990.4802093506,-1466880.8983917236,-1466797.1076965332,-1466738.9577941895,-1466700.222579956,-1466669.2153930664,-1466631.8767242432,-1466577.8339996338,-1466505.404296875,-1466421.1493530273,-1466334.2916259766,-1466251.23147583,-1466174.2308654785,-1466103.282623291,-1466039.0487976074,-1465984.6588134766,-1465943.6117858887,-1465915.8947143555,-1465897.9411621094,-1465886.4367675781,-1465880.3010559082,-1465878.8579711914,-1465880.8840942383,-1465887.0833129883,-1465901.8903198242,-1465931.1921691895,-1465978.1132202148,-1466040.2525024414,-1466109.7380981445,-1466176.7825622559,-1466234.2572021484,-1466277.5257263184,-1466299.751159668,-1466290.713897705,-1466242.9655456543,-1466158.8464660645,-1466051.0090637207,-1465937.4138183594,-1465835.6426391602,-1465758.2325134277,-1465709.6742858887,-1465685.951385498,-1465675.5396118164,-1465661.9491882324,-1465629.822845459,-1465571.9167785645,-1465490.4014892578,-1465392.3385620117,-1465285.2515563965,-1465175.0571289062,-1465066.646331787,-1464967.6850585938,-1464889.979675293,-1464843.6996765137,-1464830.173034668,-1464839.1114196777,-1464850.330657959,-1464840.733947754,-1464795.9772949219,-1464719.3098449707,-1464629.6713867188,-1464550.659576416,-1464499.1255493164,-1464479.5712280273,-1464483.6680603027,-1464492.5332336426,-1464483.066986084,-1464437.9703979492,-1464353.2827148438,-1464238.1376953125,-1464107.3011169434,-1463971.3160095215,-1463830.2511291504,-1463674.7457580566,-1463493.4647827148,-1463282.2378234863,-1463049.3258666992,-1462813.9587097168,-1462598.9747924805,-1462422.0266113281,-1462291.3672790527,-1462207.0321044922,-1462162.8997497559,-1462147.4211120605,-1462143.9687194824,-1462131.5661010742,-1462087.5409545898,-1461993.7715454102,-1461843.7791137695,-1461644.8008422852,-1461413.4291687012,-1461168.7059631348,-1460925.9983520508,-1460693.047302246,-1460469.806640625,-1460252.505859375,-1460038.462677002,-1459827.8841552734,-1459623.0563659668,-1459426.7326660156,-1459240.318359375,-1459062.056488037,-1458886.580871582,-1458707.8263549805,-1458522.3903198242,-1458327.035949707,-1458112.7460021973,-1457865.6125183105,-1457576.7265930176,-1457252.743988037,-1456919.9360046387,-1456619.4163513184,-1456394.7247009277,-1456277.3652038574,-1456276.984527588,-1456379.1518249512,-1456550.6027526855,-1456749.4751586914,-1456936.2652893066,-1457081.3389587402,-1457165.6333007812,-1457176.4877929688,-1457106.967956543,-1456961.534790039,-1456759.4145507812,-1456529.2640686035,-1456300.8482666016,-1456100.0662231445,-1455945.8930969238,-1455847.7573242188,-1455804.5678100586,-1455805.8761901855,-1455835.1355895996,-1455873.7767028809,-1455903.8916015625,-1455909.0536193848,-1455874.2276306152,-1455785.6789855957,-1455631.7839660645,-1455404.9994812012,-1455104.1914978027,-1454736.3929748535,-1454316.5605163574,-1453864.6213989258,-1453402.030090332,-1452949.5361938477,-1452524.6284179688,-1452138.0187072754,-1451792.185699463,-1451485.35647583,-1451219.5899658203,-1451005.5245056152,-1450857.9025878906,-1450786.2706604004,-1450789.3254699707,-1450854.8864440918,-1450963.3322143555,-1451092.4901428223,-1451221.412322998,-1451331.4625549316,-1451405.3397216797,-1451425.4150390625,-1451373.897277832,-1451238.2994995117,-1451020.1522827148,-1450737.1688537598,-1450415.0983276367,-1450079.2646484375,-1449753.5546875,-1449461.8256835938,-1449225.1770324707,-1449056.1835327148,-1448955.6051330566,-1448914.5178527832,-1448919.3360290527,-1448955.9763793945,-1449012.2391357422,-1449079.1515197754,-1449151.2895812988,-1449225.7601013184,-1449300.618560791,-1449373.3524169922,-1449439.6135864258,-1449493.1146240234,-1449526.850036621,-1449534.4368591309,-1449510.9192504883,-1449453.1992797852,-1449360.422241211,-1449234.896118164,-1449083.3059692383,-1448916.7286376953,-1448748.5473632812,-1448590.976989746,-1448452.4471435547,-1448338.1700439453,-1448252.4219970703,-1448198.2672729492,-1448174.8834838867,-1448176.7961425781,-1448196.244140625,-1448226.5825805664,-1448264.58203125,-1448310.537902832,-1448366.7959594727,-1448435.848449707,-1448518.9597167969,-1448616.1481323242,-1448726.7567749023,-1448848.9349975586,-1448978.5075683594,-1449109.0649414062,-1449232.78515625,-1449340.8606567383,-1449425.248046875,-1449482.733215332,-1449517.896484375,-1449541.5909423828,-1449566.4270629883,-1449602.7041015625,-1449655.9861450195,-1449726.5476074219,-1449810.6911621094,-1449902.278503418,-1449993.3311157227,-1450075.1069335938,-1450140.5329589844,-1450186.1581420898,-1450212.3915405273,-1450223.1124267578,-1450224.9986572266,-1450225.6813354492,-1450231.4465942383,-1450246.4732666016,-1450273.3913574219,-1450312.9869995117,-1450363.426574707,-1450421.2351074219,-1450483.1969604492,-1450546.7331542969,-1450608.7655639648,-1450664.9409179688,-1450710.6255493164,-1450742.8547973633,-1450760.9868164062,-1450765.8756713867,-1450759.7537841797,-1450747.0344848633,-1450733.8283081055,-1450726.0270996094,-1450728.0030517578,-1450742.236694336,-1450768.5907592773,-1450803.893371582,-1450843.1577148438,-1450881.396118164,-1450914.7819824219,-1450941.1783447266,-1450960.0590820312,-1450972.2468261719,-1450980.2092285156,-1450988.4035644531,-1451002.199645996,-1451025.2431640625,-1451057.1635131836,-1451093.6320800781,-1451129.0897216797,-1451160.2377929688,-1451187.4668579102,-1451213.6276245117,-1451241.9698486328,-1451274.7036743164,-1451312.5331420898,-1451354.71875,-1451398.9854125977,-1451441.8399658203,-1451479.784362793,-1451509.8176269531,-1451528.276916504,-1451530.1219482422,-1451510.4499511719,-1451467.1260375977,-1451402.969909668,-1451326.6142578125,-1451250.207458496,-1451183.9635009766,-1451132.3932495117,-1451095.9276123047,-1451075.0865478516,-1451072.3758544922,-1451090.9608764648,-1451132.393371582,-1451195.1631469727,-1451274.3271484375,-1451362.4401855469,-1451451.6466674805,-1451535.943359375,-1451612.4567871094,-1451680.7860107422,-1451740.8184204102,-1451791.1733398438,-1451829.9655761719,-1451856.9271240234,-1451874.126159668,-1451884.2854003906,-1451888.5037841797,-1451885.1580810547,-1451870.7910766602,-1451842.8742675781,-1451802.4383544922,-1451754.720336914,-1451708.0952148438,-1451672.2138671875,-1451655.7631225586,-1451664.0548706055,-1451697.3751220703,-1451751.2739868164,-1451818.7870483398,-1451893.454650879,-1451971.0715332031,-1452048.8334350586,-1452123.25390625,-1452189.2717285156,-1452241.342224121,-1452274.9099731445,-1452286.6182861328,-1452273.7108154297,-1452233.3178710938,-1452162.5513916016,-1452061.3446044922,-1451937.0045776367,-1451805.8908691406,-1451689.5803222656,-1451608.0216064453,-1451574.3280639648,-1451592.965209961,-1451660.596069336,-1451768.3549804688,-1451903.8975219727,-1452053.0928955078,-1452201.9350585938,-1452337.5822753906,-1452448.3262329102,-1452524.3365478516,-1452559.3850708008,-1452551.7611694336,-1452504.1951904297,-1452423.260131836,-1452318.434020996,-1452202.323425293,-1452091.2265625,-1452002.6821899414,-1451950.6842651367,-1451942.429260254,-1451977.8576049805,-1452050.7850341797,-1452150.8377685547,-1452266.0537109375,-1452385.5084228516,-1452500.7396240234,-1452605.2551879883,-1452693.3403320312,-1452760.1737060547,-1452802.915222168,-1452820.8755493164,-1452814.7268676758,-1452785.9794311523,-1452737.0354614258,-1452671.5494384766,-1452595.2001342773,-1452517.1877441406,-1452450.6818237305,-1452409.4267578125,-1452402.1149902344,-1452429.2119140625,-1452484.2956542969,-1452558.1661987305,-1452642.1903076172,-1452729.312927246,-1452814.862915039,-1452898.7178955078,-1452985.7451171875,-1453081.2454833984,-1453184.5769042969,-1453287.1951904297,-1453376.3338623047,-1453440.4260864258,-1453472.2871704102,-1453469.266052246,-1453432.9121704102,-1453369.3262939453,-1453288.2546386719,-1453200.9680175781,-1453118.5705566406,-1453049.842224121,-1452998.074645996,-1452960.0245361328,-1452929.1134033203,-1452899.354309082,-1452866.0389404297,-1452825.297302246,-1452776.0598144531,-1452722.2576904297,-1452671.3593139648,-1452630.4723510742,-1452603.4401245117,-1452589.5513916016,-1452583.8112792969,-1452580.1040649414,-1452576.332397461,-1452576.660949707,-1452588.128112793,-1452615.5252685547,-1452659.3223266602,-1452716.419494629,-1452781.3327026367,-1452847.5590820312,-1452909.377746582,-1452962.5677490234,-1453003.708557129,-1453029.799194336,-1453038.7680664062,-1453030.1447753906,-1453004.948059082,-1452964.3864135742,-1452908.9981079102,-1452839.7135620117,-1452759.6561889648,-1452675.2231445312,-1452596.1159667969,-1452534.0685424805,-1452500.3997802734,-1452503.0114135742,-1452543.9634399414,-1452619.1162719727,-1452720.2481079102,-1452837.871520996,-1452962.4334716797,-1453084.4506225586,-1453195.103149414,-1453286.333618164,-1453350.5606079102,-1453382.332397461,-1453381.2590332031,-1453352.9169921875,-1453306.965209961,-1453254.765625,-1453207.7758789062,-1453175.4112548828,-1453162.068725586,-1453165.6513671875,-1453178.8294677734,-1453191.2645263672,-1453191.5229492188,-1453169.6197509766,-1453120.4758300781,-1453046.7513427734,-1452958.8515625,-1452870.8482666016,-1452794.4099121094,-1452734.9998779297,-1452692.0947265625,-1452661.6456298828,-1452638.5555419922,-1452617.8959960938,-1452594.3208007812,-1452561.3869628906,-1452513.1037597656,-1452446.5109863281,-1452362.60546875,-1452265.5102539062,-1452161.2296142578,-1452057.060180664,-1451961.6535644531,-1451884.734741211,-1451836.3479003906,-1451825.3073730469,-1451855.7287597656,-1451924.2426757812,-1452022.7692871094,-1452145.2990722656,-1452290.9974365234,-1452460.6340332031,-1452651.4881591797,-1452856.09765625,-1453065.0555419922,-1453269.9912109375,-1453463.4978027344,-1453637.9559326172,-1453786.97265625,-1453908.1848144531,-1454003.629272461,-1454077.0607910156,-1454130.5473632812,-1454162.9942626953,-1454170.898071289,-1454149.8439941406,-1454096.3507080078,-1454009.4353027344,-1453890.8513183594,-1453744.4987792969,-1453575.6844482422,-1453390.7576904297,-1453198.2713623047,-1453010.691772461,-1452843.611328125,-1452712.3869628906,-1452629.0778808594,-1452601.351928711,-1452632.9069824219,-1452724.4453125,-1452874.7225341797,-1453081.0815429688,-1453338.6024169922,-1453637.9287109375,-1453963.8393554688,-1454297.6927490234,-1454623.6235351562,-1454933.353881836,-1455225.5032958984,-1455501.509765625,-1455763.0734863281,-1456012.529296875,-1456252.9295654297,-1456485.47265625,-1456707.0235595703,-1456910.941040039,-1457090.8150634766,-1457244.7634277344,-1457376.730102539,-1457493.4842529297,-1457601.2648925781,-1457705.2694091797,-1457810.083618164,-1457918.0897216797,-1458026.7080078125,-1458128.578125,-1458215.812866211,-1458283.9978027344,-1458333.0427246094,-1458367.1080322266,-1458394.4919433594,-1458425.0483398438,-1458465.8145751953,-1458518.6158447266,-1458580.7674560547,-1458646.927734375,-1458710.6545410156,-1458765.838256836,-1458807.9512939453,-1458834.5418701172,-1458845.2198486328,-1458841.8250732422,-1458828.7045898438,-1458812.3721923828,-1458800.32421875,-1458799.3055419922,-1458813.529663086,-1458844.2563476562,-1458891.2497558594,-1458953.7799072266,-1459029.5285644531,-1459113.5168457031,-1459199.3508300781,-1459282.0056152344,-1459359.904663086,-1459435.4226074219,-1459513.7147216797,-1459598.987915039,-1459690.0076904297,-1459779.8250732422,-1459860.6534423828,-1459928.6840820312,-1459985.1085205078,-1460035.4819335938,-1460088.9243164062,-1460155.357421875,-1460242.0151367188,-1460352.306274414,-1460486.0251464844,-1460638.4075927734,-1460799.1687011719,-1460953.9642333984,-1461088.1960449219,-1461191.7521972656,-1461262.1221923828,-1461303.3748779297,-1461322.8770751953,-1461329.4361572266,-1461332.0662841797,-1461337.6081542969,-1461349.8527832031,-1461371.3801269531,-1461404.6196289062,-1461450.775390625,-1461508.7576904297,-1461575.355834961,-1461646.4110107422,-1461717.9349365234,-1461786.2791748047,-1461848.076538086,-1461900.801147461,-1461943.6290283203,-1461978.0639648438,-1462007.4323730469,-1462034.6401367188,-1462060.0401611328,-1462081.7137451172,-1462097.8227539062,-1462108.8221435547,-1462117.1717529297,-1462124.2005615234,-1462127.4484863281,-1462121.6362304688,-1462102.4229736328,-1462069.9194335938,-1462029.1625976562,-1461987.0478515625,-1461948.7553710938,-1461917.4057617188,-1461897.232421875,-1461896.0551757812,-1461923.1872558594,-1461985.4962158203,-1462086.2604980469,-1462225.808227539,-1462401.5070800781,-1462607.7708740234,-1462836.5004882812,-1463077.1218261719,-1463316.5471191406,-1463540.1889648438,-1463733.9838867188,-1463886.577758789,-1463991.7427978516,-1464051.0588378906,-1464074.6563720703,-1464077.9024658203,-1464075.7702636719,-1464078.8413085938,-1464092.4615478516,-1464117.4122314453,-1464150.8432617188,-1464188.409790039,-1464227.3220214844,-1464268.0954589844,-1464314.6623535156,-1464373.0354003906,-1464447.536743164,-1464535.7939453125,-1464625.8282470703,-1464697.2318115234,-1464726.884399414,-1464698.1827392578,-1464608.6232910156,-1464470.6276855469,-1464307.1967773438,-1464144.9017333984,-1464004.9500732422,-1463896.4053955078,-1463814.8679199219,-1463745.220336914,-1463666.6477050781,-1463560.3061523438,-1463418.0810546875,-1463247.5323486328,-1463071.2260742188,-1462920.91796875,-1462827.0068359375,-1462808.9598388672,-1462872.8756103516,-1463015.265991211,-1463228.6710205078,-1463504.1689453125,-1463828.2727050781,-1464178.9047851562,-1464526.581665039,-1464839.9790039062,-1465091.621459961,-1465262.3134765625,-1465344.1435546875,-1465340.5727539062,-1465262.9670410156,-1465125.6372070312,-1464942.3841552734,-1464725.8056640625,-1464488.2315673828,-1464242.2607421875,-1463999.7973632812,-1463769.9523925781,-1463557.0485839844,-1463360.5633544922,-1463177.8825683594,-1463007.892578125,-1462852.4658203125,-1462715.107788086,-1462598.3649902344,-1462501.7109375,-1462420.799194336,-1462348.890625,-1462279.41015625,-1462206.4757080078,-1462123.6049804688,-1462024.5072021484,-1461906.7075195312,-1461775.0284423828,-1461642.1759033203,-1461524.9033203125,-1461437.4122314453,-1461385.8204345703,-1461366.0505371094,-1461366.7512207031,-1461376.2794189453,-1461388.1647949219,-1461400.8310546875,-1461413.5716552734,-1461423.8563232422,-1461427.623413086,-1461419.521118164,-1461390.136352539,-1461320.0258789062,-1461174.2491455078,-1460905.9650878906,-1460475.767944336,-1459879.2181396484,-1459162.0556640625,-1458410.2341308594,-1457722.2111816406,-1457180.0302734375,-1456830.5520019531,-1456679.9559326172,-1456700.0744628906,-1456844.4194335938,-1457068.8337402344,-1457345.3048095703,-1457661.0708007812,-1458009.474609375,-1458382.5772705078,-1458767.0300292969,-1459142.1967773438,-1459481.9764404297,-1459760.211303711,-1459956.4425048828,-1460058.9002685547,-1460064.8237304688,-1459979.9715576172,-1459817.7729492188,-1459597.4578857422,-1459340.8732910156,-1459068.4947509766,-1458796.0739746094,-1458533.5279541016,-1458286.3028564453,-1458057.5783691406,-1457849.5150146484,-1457663.5832519531,-1457500.583618164,-1457360.0500488281,-1457239.6307373047,-1457135.652709961,-1457044.1912841797,-1456961.4752197266,-1456883.9561767578,-1456808.7009277344,-1456734.0673828125,-1456659.9758300781,-1456587.5477294922,-1456519.2309570312,-1456459.4102783203,-1456413.1727294922,-1456383.0158691406,-1456366.6912841797,-1456357.7375488281,-1456347.1887207031,-1456325.0478515625,-1456282.0760498047,-1456213.0998535156,-1456120.2541503906,-1456013.037109375,-1455904.9829101562,-1455808.1107177734,-1455726.8547363281,-1455656.6306152344,-1455589.70703125,-1455523.1533203125,-1455461.9505615234,-1455415.3291015625,-1455390.0809326172,-1455386.2845458984,-1455398.0559082031,-1455417.6939697266,-1455439.286743164,-1455460.7531738281,-1455485.6744384766,-1455522.6850585938,-1455580.4794921875,-1455662.4418945312,-1455764.9978027344,-1455879.238647461,-1455993.8874511719,-1456098.310180664,-1456184.6921386719,-1456248.7468261719,-1456288.751953125,-1456303.8256835938,-1456292.9323730469,-1456255.3356933594,-1456191.6755371094,-1456104.4321289062,-1455997.9008789062,-1455877.9621582031,-1455751.0053710938,-1455622.69921875,-1455497.8444824219,-1455380.47265625,-1455273.2875976562,-1455177.5205078125,-1455093.6059570312,-1455021.6123046875,-1454960.9741210938,-1454909.8820800781,-1454865.1340332031,-1454822.6870117188,-1454777.5603027344,-1454722.7316894531,-1454649.4311523438,-1454550.9143066406,-1454427.85546875,-1454290.390625,-1454154.3835449219,-1454035.2143554688,-1453943.4223632812,-1453882.7668457031,-1453849.8615722656,-1453835.3720703125,-1453826.44140625,-1453810.1818847656,-1453777.8576660156,-1453726.8103027344,-1453657.7036132812,-1453571.1806640625,-1453470.6010742188,-1453368.59765625,-1453287.1281738281,-1453248.1223144531,-1453263.8889160156,-1453335.2419433594,-1453455.2221679688,-1453611.8935546875,-1453789.2622070312,-1453970.3649902344,-1454141.4489746094,-1454292.5656738281,-1454415.9777832031,-1454506.3879394531,-1454561.8688964844,-1454582.9445800781,-1454570.7126464844,-1454526.3010253906,-1454452.1567382812,-1454353.0131835938,-1454234.6784667969,-1454102.3513183594,-1453961.0185546875,-1453816.5771484375,-1453674.8723144531,-1453539.7514648438,-1453413.1130371094,-1453296.0581054688,-1453188.3427734375,-1453087.2951660156,-1452989.2719726562,-1452892.9572753906,-1452800.2424316406,-1452711.8125,-1452622.5300292969,-1452524.8459472656,-1452416.4072265625,-1452300.6484375,-1452180.6091308594,-1452055.0432128906,-1451919.9636230469,-1451772.0871582031,-1451611.5246582031,-1451444.2058105469,-1451283.8132324219,-1451150.12890625,-1451062.8037109375,-1451034.1159667969,-1451064.9604492188,-1451145.7478027344,-1451260.6645507812,-1451392.1396484375,-1451523.4118652344,-1451639.5222167969,-1451728.5954589844,-1451783.8796386719,-1451804.6618652344,-1451795.0173339844,-1451761.9301757812,-1451714.0874023438,-1451660.7214355469,-1451609.4848632812,-1451563.9362792969,-1451522.9731445312,-1451483.4553222656,-1451443.66015625,-1451403.8100585938,-1451363.5590820312,-1451321.1101074219,-1451277.5148925781,-1451241.6145019531,-1451227.7963867188,-1451247.8642578125,-1451305.0163574219,-1451392.8322753906,-1451497.5693359375,-1451602.5041503906,-1451691.4089355469,-1451748.689453125,-1451758.8640136719,-1451710.1906738281,-1451602.7692871094,-1451453.2609863281,-1451287.7009277344,-1451127.8415527344,-1450984.9152832031,-1450862.8410644531,-1450762.751953125,-1450685.9313964844,-1450635.7578125,-1450616.6750488281,-1450630.1057128906,-1450670.8486328125,-1450725.9975585938,-1450775.4223632812,-1450793.8972167969,-1450757.0441894531,-1450650.5073242188,-1450477.3181152344,-1450258.6323242188,-1450027.3322753906,-1449817.9421386719,-1449657.7097167969,-1449561.9064941406,-1449533.4436035156,-1449565.6123046875,-1449646.0427246094,-1449759.4208984375,-1449888.5778808594,-1450015.6467285156,-1450124.3161621094,-1450202.5322265625,-1450244.75,-1450252.8005371094,-1450234.1689453125,-1450198.2902832031,-1450153.8029785156,-1450108.0080566406,-1450066.8352050781,-1450034.2316894531,-1450011.7421875,-1449999.3051757812,-1449996.7971191406,-1450004.3234863281,-1450020.6069335938,-1450042.01171875,-1450064.119140625,-1450083.4826660156,-1450097.5061035156,-1450104.6752929688,-1450106.1496582031,-1450105.9306640625,-1450108.8022460938,-1450117.9653320312,-1450133.3803710938,-1450151.6459960938,-1450168.1291503906,-1450179.7895507812,-1450186.8171386719,-1450192.4223632812,-1450200.7734375,-1450214.6813964844,-1450234.4074707031,-1450256.791015625,-1450275.3857421875,-1450283.8532714844,-1450280.6831054688,-1450270.0612792969,-1450258.1276855469,-1450249.0705566406,-1450244.12109375,-1450242.4538574219,-1450242.1364746094,-1450241.126953125,-1450238.9416503906,-1450238.2065429688,-1450244.7790527344,-1450265.6496582031,-1450305.4665527344,-1450363.8791503906,-1450434.9206542969,-1450508.7846679688,-1450575.7619628906,-1450629.7724609375,-1450668.9504394531,-1450694.0048828125,-1450706.568359375,-1450708.650390625,-1450703.0302734375,-1450693.5830078125,-1450684.6823730469,-1450680.3181152344,-1450683.7993164062,-1450697.5212402344,-1450721.83203125,-1450753.19140625,-1450783.1372070312,-1450799.7172851562,-1450792.0517578125,-1450756.7670898438,-1450702.5869140625,-1450649.8103027344,-1450624.3110351562,-1450648.5007324219,-1450733.8813476562,-1450879.09375,-1451073.2983398438,-1451301.2553710938,-1451546.8330078125,-1451794.9599609375,-1452032.8647460938,-1452250.2077636719,-1452438.5678710938,-1452591.3120117188,-1452703.5817871094,-1452772.7172851562,-1452800.0427246094,-1452792.5561523438,-1452762.1555175781,-1452722.5590820312,-1452685.9562988281,-1452660.7700195312,-1452650.5773925781,-1452653.8325195312,-1452664.884765625,-1452676.5017089844,-1452682.3566894531,-1452677.8149414062,-1452659.4409179688,-1452624.6613769531,-1452571.9763183594,-1452501.4494628906,-1452415.470703125,-1452318.9565429688,-1452218.2280273438,-1452119.837890625,-1452030.2768554688,-1451955.3056640625,-1451898.5646972656,-1451860.9699707031,-1451841.3010253906,-1451836.7661132812,-1451842.8786621094,-1451853.4497070312,-1451861.8732910156,-1451863.5610351562,-1451857.0236816406,-1451841.9379882812,-1451818.1264648438,-1451789.0388183594,-1451764.7458496094,-1451757.8801269531,-1451775.7229003906,-1451817.4611816406,-1451878.5427246094,-1451955.1574707031,-1452043.451171875,-1452136.4223632812,-1452224.1140136719,-1452297.0278320312,-1452348.4255371094,-1452373.8864746094,-1452371.2319335938,-1452342.7390136719,-1452296.3156738281,-1452242.8779296875,-1452191.2297363281,-1452143.9338378906,-1452097.3413085938,-1452043.6909179688,-1451970.4060058594,-1451858.5544433594,-1451688.0847167969,-1451451.5881347656,-1451166.6740722656,-1450875.0363769531,-1450628.9155273438,-1450475.5808105469,-1450446.0090332031,-1450548.2172851562,-1450765.7778320312,-1451061.4328613281,-1451387.0085449219,-1451700.2253417969,-1451979.3874511719,-1452224.8542480469,-1452448.7746582031,-1452662.41015625,-1452867.5830078125,-1453055.5070800781,-1453214.2272949219,-1453339.8662109375,-1453441.3569335938,-1453533.8386230469,-1453627.3247070312,-1453720.06640625,-1453799.3791503906,-1453846.2082519531,-1453839.8120117188,-1453763.1313476562,-1453610.6999511719,-1453396.5100097656,-1453155.3393554688,-1452934.2412109375,-1452777.1577148438,-1452710.7995605469,-1452739.9138183594,-1452850.7954101562,-1453015.4514160156,-1453194.9064941406,-1453347.1176757812,-1453440.4992675781,-1453465.1311035156,-1453433.2138671875,-1453367.3552246094,-1453284.0471191406,-1453185.2353515625,-1453063.9411621094,-1452917.6684570312,-1452758.8955078125,-1452613.6818847656,-1452510.416015625,-1452470.5895996094,-1452504.4267578125,-1452606.5578613281,-1452753.3642578125,-1452904.6437988281,-1453010.5908203125,-1453029.6171875,-1452952.4743652344,-1452809.1713867188,-1452649.1416015625,-1452515.9245605469,-1452435.009765625,-1452413.0395507812,-1452442.0427246094,-1452504.9519042969,-1452580.3083496094,-1452647.0285644531,-1452688.9714355469,-1452696.4077148438,-1452665.4096679688,-1452600.1123046875,-1452515.9426269531,-1452436.0935058594,-1452381.3312988281,-1452360.4055175781,-1452367.0361328125,-1452386.1123046875,-1452404.1638183594,-1452414.6203613281,-1452416.0649414062,-1452408.8283691406,-1452393.4016113281,-1452370.041015625,-1452336.5949707031,-1452284.4663085938,-1452198.1572265625,-1452061.9475097656,-1451869.9921875,-1451632.3115234375,-1451371.8933105469,-1451115.8308105469,-1450886.8215332031,-1450696.9841308594,-1450545.8840332031,-1450427.0090332031,-1450337.591796875,-1450280.6442871094,-1450260.8408203125,-1450281.8322753906,-1450342.5729980469,-1450430.4887695312,-1450520.2680664062,-1450585.4924316406,-1450614.3630371094,-1450613.7592773438,-1450599.7312011719,-1450586.6557617188,-1450583.2106933594,-1450593.265625,-1450617.6782226562,-1450655.634765625,-1450705.4409179688,-1450764.5935058594,-1450829.4157714844,-1450895.1943359375,-1450957.0725097656,-1451011.1879882812,-1451055.3347167969,-1451088.7277832031,-1451111.4714355469,-1451124.2873535156,-1451127.9001464844,-1451121.3610839844,-1451101.1169433594,-1451063.3940429688,-1451007.8449707031,-1450938.3942871094,-1450861.7995605469,-1450786.3388671875,-1450720.6589355469,-1450672.2458496094,-1450645.5046386719,-1450640.3908691406,-1450652.8830566406,-1450676.7036132812,-1450705.3361816406,-1450734.5769042969,-1450764.4973144531,-1450798.4067382812,-1450839.1882324219,-1450886.0642089844,-1450933.7272949219,-1450974.3566894531,-1451001.7934570312,-1451014.6953125,-1451016.0578613281,-1451010.7426757812,-1451004.2282714844,-1451002.19140625,-1451008.2927246094,-1451020.8210449219,-1451031.9013671875,-1451031.60546875,-1451015.1101074219,-1450987.4348144531,-1450961.5939941406,-1450951.4096679688,-1450964.3498535156,-1450999.1396484375,-1451048.6564941406,-1451104.955078125,-1451162.7412109375,-1451219.5234375,-1451274.0029296875,-1451325.4780273438,-1451373.6909179688,-1451417.5400390625,-1451454.0930175781,-1451479.4682617188,-1451490.7160644531,-1451487.5043945312,-1451472.7648925781,-1451451.3735351562,-1451427.3933105469,-1451401.6862792969,-1451371.4870605469,-1451332.7473144531,-1451283.8742675781,-1451227.5407714844,-1451169.1203613281,-1451113.5473632812,-1451062.9375,-1451016.5358886719,-1450973.0864257812,-1450933.1079101562,-1450899.0778808594,-1450874.3615722656,-1450862.1352539062,-1450864.974609375,-1450884.8454589844,-1450921.8264160156,-1450971.7265625,-1451025.8227539062,-1451074.1813964844,-1451109.62109375,-1451129.3955078125,-1451135.0402832031,-1451131.3073730469,-1451123.6044921875,-1451114.6220703125,-1451102.6286621094,-1451082.7019042969,-1451049.8967285156,-1451002.1845703125,-1450941.9597167969,-1450876.4799804688,-1450816.3674316406,-1450771.1433105469,-1450745.2114257812,-1450737.8984375,-1450746.0053710938,-1450766.2158203125,-1450796.6467285156,-1450837.2204589844,-1450888.8764648438,-1450952.2751464844,-1451026.8117675781,-1451110.3679199219,-1451199.634765625,-1451291.1411132812,-1451382.6884765625,-1451473.5966796875,-1451563.0732421875,-1451648.328125,-1451723.7143554688,-1451781.5385742188,-1451815.3706054688,-1451824.2348632812,-1451813.8901367188,-1451793.8061523438,-1451772.1928710938,-1451752.9375,-1451736.5493164062,-1451723.876953125,-1451718.8359375,-1451727.2231445312,-1451753.1694335938,-1451797.4873046875,-1451858.5498046875,-1451932.7309570312,-1452013.3974609375,-1452090.1313476562,-1452150.0698242188,-1452182.5727539062,-1452185.2504882812,-1452166.4252929688,-1452142.1098632812,-1452130.2221679688,-1452145.2368164062,-1452194.4848632812,-1452276.1689453125,-1452379.8520507812,-1452490.7802734375,-1452596.619140625,-1452691.6752929688,-1452776.0170898438,-1452851.7763671875,-1452920.185546875,-1452980.6440429688,-1453030.9819335938,-1453068.2333984375,-1453090.224609375,-1453097.6557617188,-1453095.1772460938,-1453090.2470703125,-1453090.2216796875,-1453099.8510742188,-1453120.5849609375,-1453150.6069335938,-1453185.1254882812,-1453218.3408203125,-1453246.6689453125,-1453270.2944335938,-1453291.205078125,-1453309.3110351562,-1453320.5473632812,-1453319.2314453125,-1453302.1298828125,-1453270.1850585938,-1453227.19140625,-1453177.7758789062,-1453125.9702148438,-1453074.0458984375,-1453022.3793945312,-1452971.328125,-1452923.931640625,-1452886.7944335938,-1452867.2822265625,-1452868.8413085938,-1452888.2915039062,-1452916.1694335938,-1452939.3764648438,-1452945.9970703125,-1452930.5825195312,-1452897.0625,-1452858.2377929688,-1452832.1259765625,-1452835.9829101562,-1452879.9169921875,-1452963.3911132812,-1453076.4794921875,-1453203.9936523438,-1453329.935546875,-1453441.5708007812,-1453531.8310546875,-1453598.3706054688,-1453640.8637695312,-1453659.6586914062,-1453656.3706054688,-1453635.2358398438,-1453603.6762695312,-1453570.5590820312,-1453543.0346679688,-1453524.9311523438,-1453517.2690429688,-1453519.2924804688,-1453528.6987304688,-1453540.2685546875,-1453544.4721679688,-1453530.365234375,-1453492.7153320312,-1453436.8764648438,-1453377.0336914062,-1453329.7172851562,-1453307.1098632812,-1453314.3774414062,-1453351.7641601562,-1453417.5649414062,-1453508.7368164062,-1453620.0541992188,-1453742.7358398438,-1453862.2338867188,-1453957.4643554688,-1454005.7553710938,-1453992.4731445312,-1453918.2319335938,-1453798.6030273438,-1453659.2631835938,-1453531.1044921875,-1453444.4829101562,-1453422.0390625,-1453473.466796875,-1453594.62109375,-1453771.5654296875,-1453987.8549804688,-1454229.26171875,-1454482.1381835938,-1454729.1430664062,-1454948.5810546875,-1455119.1157226562,-1455226.59765625,-1455268.662109375,-1455254.7036132812,-1455200.9848632812,-1455123.2211914062,-1455031.7270507812,-1454931.9267578125,-1454826.6337890625,-1454715.9423828125,-1454596.083984375,-1454460.3642578125,-1454302.5888671875,-1454121.755859375,-1453925.8647460938,-1453731.09765625,-1453556.1528320312,-1453419.0131835938,-1453338.4711914062,-1453331.4868164062,-1453404.4208984375,-1453547.5961914062,-1453737.8291015625,-1453945.265625,-1454139.6459960938,-1454292.2734375,-1454372.5668945312,-1454343.5610351562,-1454166.2314453125,-1453818.4013671875,-1453318.1435546875,-1452732.49609375,-1452162.8530273438,-1451714.6567382812,-1451467.1474609375,-1451456.33203125,-1451673.46875,-1452074.0576171875,-1452592.7866210938,-1453159.0830078125,-1453707.5102539062,-1454182.427734375,-1454542.1137695312,-1454764.09765625,-1454846.5776367188,-1454803.9677734375,-1454661.7963867188,-1454454.0209960938,-1454220.1791992188,-1453999.0112304688,-1453819.1982421875,-1453692.3330078125,-1453613.6870117188,-1453570.6674804688,-1453550.3032226562,-1453537.9174804688,-1453513.1005859375,-1453456.4912109375,-1453365.1489257812,-1453257.2749023438,-1453159.7216796875,-1453094.4775390625,-1453074.3872070312,-1453102.1206054688,-1453168.8393554688,-1453253.2456054688,-1453319.0849609375,-1453316.3564453125,-1453196.1049804688,-1452934.7836914062,-1452553.7866210938,-1452122.1098632812,-1451735.3203125,-1451480.2919921875,-1451408.330078125,-1451527.5205078125,-1451808.771484375,-1452198.9560546875,-1452637.7060546875,-1453072.224609375,-1453464.52734375,-1453791.0834960938,-1454038.0126953125,-1454196.4321289062,-1454261.7045898438,-1454233.7758789062,-1454115.3842773438,-1453911.9052734375,-1453633.9633789062,-1453296.6103515625,-1452913.3305664062,-1452496.9521484375,-1452074.3403320312,-1451692.8212890625,-1451401.1381835938,-1451226.46484375,-1451169.349609375,-1451209.5747070312,-1451312.7319335938,-1451438.3974609375,-1451550.978515625,-1451629.2553710938,-1451668.5151367188,-1451674.0766601562,-1451653.1381835938,-1451610.87109375,-1451549.4907226562,-1451467.7529296875,-1451360.8198242188,-1451220.6479492188,-1451038.421875,-1450812.3500976562,-1450556.5703125,-1450299.6469726562,-1450072.65234375,-1449898.2080078125,-1449784.5493164062,-1449723.5537109375,-1449696.068359375,-1449681.7236328125,-1449662.7900390625,-1449622.98046875,-1449550.7412109375,-1449444.2358398438,-1449311.1298828125,-1449166.5151367188,-1449032.1279296875,-1448934.1376953125,-1448897.0258789062,-1448934.8876953125,-1449044.4291992188,-1449203.8955078125,-1449380.0751953125,-1449539.9711914062,-1449659.0463867188,-1449723.6953125,-1449732.5141601562,-1449696.8076171875,-1449636.5541992188,-1449572.9018554688,-1449522.6640625,-1449496.44140625,-1449497.7075195312,-1449522.2861328125,-1449560.5141601562,-1449602.3212890625,-1449641.662109375,-1449676.9936523438,-1449709.0463867188,-1449738.7651367188,-1449766.1938476562,-1449789.8032226562,-1449806.1489257812,-1449810.6694335938,-1449800.0634765625,-1449774.234375,-1449735.4482421875,-1449686.02734375,-1449628.0009765625,-1449564.365234375,-1449499.1337890625,-1449436.7778320312,-1449382.5366210938,-1449342.1953125,-1449320.7856445312,-1449321.232421875,-1449342.8637695312,-1449380.0981445312,-1449422.732421875,-1449458.4296875,-1449476.689453125,-1449472.5888671875,-1449448.2919921875,-1449411.2524414062,-1449369.6469726562,-1449327.8779296875,-1449285.5078125,-1449240.9926757812,-1449197.390625,-1449164.1875,-1449153.5073242188,-1449174.9731445312,-1449232.234375,-1449321.44140625,-1449432.0380859375,-1449549.9423828125,-1449661.6318359375,-1449757.3491210938,-1449832.5610351562,-1449887.1079101562,-1449922.1870117188,-1449937.3408203125,-1449929.5874023438,-1449895.2426757812,-1449833.5341796875,-1449749.3779296875,-1449653.1186523438,-1449557.6645507812,-1449474.7250976562,-1449411.6518554688,-1449370.0112304688,-1449346.42578125,-1449335.1630859375,-1449330.9887695312,-1449330.92578125,-1449334.4360351562,-1449342.0439453125,-1449353.888671875,-1449369.4389648438,-1449387.1596679688,-1449403.7392578125,-1449414.9575195312,-1449418.05078125,-1449412.6879882812,-1449400.0161132812,-1449382.046875,-1449361.9345703125,-1449343.9467773438,-1449332.7724609375,-1449332.2099609375,-1449343.611328125,-1449365.8076171875,-1449396.798828125,-1449434.767578125,-1449477.2133789062,-1449519.2724609375,-1449552.7412109375,-1449568.2373046875,-1449561.32421875,-1449536.9052734375,-1449506.1904296875,-1449480.1010742188,-1449465.7861328125,-1449466.60546875,-1449483.4067382812,-1449515.9194335938,-1449563.1318359375,-1449623.32421875,-1449694.5087890625,-1449774.4423828125,-1449860.13671875,-1449947.2817382812,-1450029.4731445312,-1450098.1884765625,-1450144.7905273438,-1450163.650390625,-1450154.5444335938,-1450123.431640625,-1450081.3627929688,-1450041.3930664062,-1450014.69921875,-1450008.4755859375,-1450026.154296875,-1450068.09765625,-1450132.0673828125,-1450214.44921875,-1450311.9619140625,-1450421.8803710938,-1450540.3266601562,-1450661.1953125,-1450777.28515625,-1450881.7158203125,-1450968.662109375,-1451034.501953125,-1451078.9584960938,-1451104.6884765625,-1451115.5346679688,-1451114.9067382812,-1451104.4638671875,-1451082.2265625,-1451042.1372070312,-1450978.884765625,-1450895.5043945312,-1450805.5678710938,-1450727.7055664062,-1450677.95703125,-1450664.4956054688,-1450686.0146484375,-1450734.255859375,-1450799.0942382812,-1450872.5668945312,-1450949.9028320312,-1451028.1430664062,-1451103.8813476562,-1451171.7309570312,-1451223.9526367188,-1451251.5024414062,-1451247.7026367188,-1451213.4921875,-1451159.349609375,-1451101.6762695312,-1451057.1137695312,-1451038.1259765625,-1451050.4555664062,-1451092.9736328125,-1451159.7182617188,-1451242.697265625,-1451334.3413085938,-1451428.6528320312,-1451520.8139648438,-1451606.0825195312,-1451678.958984375,-1451733.51953125,-1451764.9008789062,-1451771.0673828125,-1451753.6225585938,-1451716.8276367188,-1451665.705078125,-1451604.6938476562,-1451537.0537109375,-1451465.2172851562,-1451392.3916015625,-1451323.4477539062,-1451263.7768554688,-1451218.3720703125,-1451192.3662109375,-1451190.1938476562,-1451212.0405273438,-1451251.5205078125,-1451298.08203125,-1451342.09375,-1451379.13671875,-1451411.1430664062,-1451442.6962890625,-1451475.380859375,-1451505.8779296875,-1451528.48828125,-1451538.1166992188,-1451532.2905273438,-1451513.0380859375,-1451487.033203125,-1451462.4536132812,-1451444.8818359375,-1451435.2094726562,-1451430.1196289062,-1451424.4291992188,-1451413.6743164062,-1451395.2426757812,-1451368.1782226562,-1451332.9848632812,-1451291.6806640625,-1451247.166015625,-1451201.5385742188,-1451154.7211914062,-1451105.3740234375,-1451053.52734375,-1451002.21875,-1450957.140625,-1450925.109375,-1450911.9609375,-1450920.447265625,-1450948.7534179688,-1450990.6157226562,-1451037.4951171875,-1451081.8017578125,-1451119.6450195312,-1451151.7202148438,-1451181.6328125,-1451212.7749023438,-1451246.0302734375,-1451279.2280273438,-1451307.5053710938,-1451324.8530273438,-1451327.0063476562,-1451313.6064453125,-1451288.1630859375,-1451256.5385742188,-1451225.2172851562,-1451199.8603515625,-1451184.2856445312,-1451180.892578125,-1451192.2407226562,-1451220.9755859375,-1451267.2426757812,-1451326.84375,-1451392.7202148438,-1451458.2895507812,-1451519.57421875,-1451575.4736328125,-1451627.4624023438,-1451678.5922851562,-1451731.3647460938,-1451785.7094726562,-1451838.0185546875,-1451881.5297851562,-1451908.6533203125,-1451914.4692382812,-1451899.197265625,-1451868.4458007812,-1451831.1713867188,-1451796.2900390625,-1451769.8969726562,-1451754.22265625,-1451747.900390625,-1451746.9877929688,-1451746.5141601562,-1451742.0698242188,-1451730.9741210938,-1451712.521484375,-1451687.59375,-1451658.328125,-1451627.3330078125,-1451595.67578125,-1451561.056640625,-1451518.916015625,-1451466.1801757812,-1451404.4399414062,-1451340.7299804688,-1451285.7475585938,-1451249.72265625,-1451237.6088867188,-1451246.5830078125,-1451267.36328125,-1451288.7446289062,-1451303.2998046875,-1451310.8569335938,-1451317.541015625,-1451332.32421875,-1451363.4111328125,-1451415.064453125,-1451486.7495117188,-1451575.6508789062,-1451678.880859375,-1451792.634765625,-1451910.7470703125,-1452024.7275390625,-1452124.9057617188,-1452202.650390625,-1452252.2661132812,-1452270.3217773438,-1452253.6284179688,-1452199.1596679688,-1452106.2993164062,-1451978.9580078125,-1451826.0581054688,-1451661.587890625,-1451504.6181640625,-1451376.5336914062,-1451295.0395507812,-1451269.0771484375,-1451296.771484375,-1451365.7436523438,-1451456.1342773438,-1451545.8110351562,-1451614.8344726562,-1451647.3452148438,-1451633.3881835938,-1451573.4262695312,-1451481.7973632812,-1451382.5473632812,-1451298.763671875,-1451243.0498046875,-1451214.0317382812,-1451197.6772460938,-1451170.8798828125,-1451108.6474609375,-1450996.6220703125,-1450843.4990234375,-1450681.5307617188,-1450550.513671875,-1450477.130859375,-1450466.1860351562,-1450508.5126953125,-1450595.0810546875,-1450722.6044921875,-1450886.5346679688,-1451069.8627929688,-1451238.8432617188,-1451351.5737304688,-1451374.9672851562,-1451298.9956054688,-1451142.0161132812,-1450947.4677734375,-1450771.6318359375,-1450664.8002929688,-1450656.3149414062,-1450752.2265625,-1450941.2358398438,-1451198.5654296875,-1451485.7729492188,-1451754.42578125,-1451959.1215820312,-1452072.4399414062,-1452089.6899414062,-1452023.2368164062,-1451895.46484375,-1451733.3310546875,-1451561.2583007812,-1451392.4018554688,-1451221.94140625,-1451026.3979492188,-1450773.56640625,-1450442.7265625,-1450044.2412109375,-1449624.3974609375,-1449251.9033203125,-1448996.5297851562,-1448911.2045898438,-1449020.646484375,-1449317.2514648438,-1449764.36328125,-1450304.8159179688,-1450870.6352539062,-1451390.6025390625,-1451798.3994140625,-1452044.0815429688,-1452106.1684570312,-1451999.8779296875,-1451773.138671875,-1451486.3037109375,-1451190.2822265625,-1450920.537109375,-1450703.40625,-1450560.01953125,-1450503.3935546875,-1450532.6767578125,-1450627.5200195312,-1450749.3647460938,-1450854.98046875,-1450914.0502929688,-1450919.4150390625,-1450886.0913085938,-1450839.7548828125,-1450801.7280273438,-1450780.8325195312,-1450774.5668945312,-1450774.2700195312,-1450769.2998046875,-1450748.4125976562,-1450699.052734375,-1450606.962890625,-1450459.1259765625,-1450249.26171875,-1449980.4609375,-1449662.3032226562,-1449305.5102539062,-1448918.9443359375,-1448512.6337890625,-1448104.5180664062,-1447723.076171875,-1447401.75,-1447169.0102539062,-1447040.8959960938,-1447018.5390625,-1447089.1098632812,-1447229.6157226562,-1447412.384765625,-1447609.470703125,-1447794.95703125,-1447946.3002929688,-1448046.7602539062,-1448088.7421875,-1448074.6118164062,-1448013.236328125,-1447914.9311523438,-1447788.4438476562,-1447640.7006835938,-1447478.0415039062,-1447307.8305664062,-1447139.0625,-1446981.6181640625,-1446845.1831054688,-1446738.2568359375,-1446667.4560546875,-1446636.7768554688,-1446646.845703125,-1446694.8715820312,-1446774.994140625,-1446878.3779296875,-1446994.1181640625,-1447111.951171875,-1447225.26953125,-1447332.1655273438,-1447434.0302734375,-1447533.4672851562,-1447633.0029296875,-1447734.544921875,-1447838.9150390625,-1447945.1201171875,-1448050.0068359375,-1448149.3745117188,-1448239.6137695312,-1448317.4814453125,-1448378.3999023438,-1448416.541015625,-1448427.4926757812,-1448410.5083007812,-1448368.779296875,-1448308.947265625,-1448240.28125,-1448173.2255859375,-1448117.36328125,-1448079.05078125,-1448060.123046875,-1448058.7900390625,-1448071.5,-1448094.9453125,-1448128.2568359375,-1448173.56640625,-1448233.69140625,-1448308.779296875,-1448394.5751953125,-1448483.6357421875,-1448568.6767578125,-1448645.3984375,-1448711.9208984375,-1448765.3388671875,-1448801.23828125,-1448819.1806640625,-1448827.5771484375,-1448841.4072265625,-1448875.61328125,-1448940.1474609375,-1449038.537109375,-1449168.708984375,-1449323.7490234375,-1449492.5869140625,-1449661.796875,-1449817.7568359375,-1449948.0625,-1450043.33984375,-1450099.6474609375,-1450119.29296875,-1450108.75,-1450075.6298828125,-1450027.072265625
